1618794889.00
64.000000
-0.00
-0.00
-0.00
-0.00
-0.00
-0.00
-0.00
-0.00
-0.00
-0.00
0.00
0.01
0.01
-0.00
-0.03
-0.05
-0.05
0.00
0.13
0.36
0.66
1.01
1.37
1.72
2.06
2.40
2.78
3.23
3.79
4.43
5.12
5.78
6.38
6.91
7.40
7.91
8.51
9.34
10.33
11.41
12.47
13.43
14.30
15.22
16.37
17.92
20.13
22.86
25.87
28.86
31.62
34.15
36.70
39.67
43.43
48.47
54.57
61.29
68.03
74.33
80.05
85.52
91.37
98.24
106.93
117.24
128.59
140.08
150.89
160.63
169.57
178.90
187.50
198.13
211.97
229.50
249.53
268.70
282.00
284.15
271.50
243.46
203.06
154.95
104.04
53.68
5.09
-42.15
-89.02
-136.24
-183.94
-231.35
-277.39
-319.97
-356.05
-382.12
-395.27
-394.44
-380.97
-358.34
-330.73
-301.93
-274.38
-249.13
-226.33
-205.82
-187.41
-170.87
-155.77
-141.36
-127.01
-112.43
-97.84
-83.87
-71.29
-60.60
-51.81
-44.43
-37.65
-30.80
-23.53
-15.99
-8.70
-2.25
2.93
6.77
9.53
11.66
13.57
15.53
17.58
19.64
21.50
22.96
23.87
24.18
24.01
23.55
23.08
22.78
22.72
22.79
22.78
22.53
21.98
21.24
20.46
19.75
19.14
18.54
17.87
17.05
16.11
15.19
14.39
13.82
13.50
13.38
13.38
13.36
13.24
12.94
12.48
11.91
11.34
10.87
10.58
10.46
10.45
10.45
10.38
10.18
9.88
9.53
9.18
8.84
8.48
8.05
7.57
7.11
6.76
6.62
6.66
6.81
6.94
6.95
6.81
6.57
6.30
6.06
5.87
5.72
5.60
5.53
5.52
5.55
5.57
5.49
5.25
4.81
4.22
3.59
3.04
2.63
2.38
2.27
2.21
2.17
2.10
2.00
1.83
1.60
1.31
0.98
0.64
0.33
0.07
-0.14
-0.29
-0.37
-0.38
-0.34
-0.31
-0.36
-0.58
-0.97
-1.50
-2.04
-2.49
-2.76
-2.83
-2.73
-2.53
-2.30
-2.05
-1.79
-1.50
-1.16
-0.77
-0.40
-0.08
0.11
0.16
0.12
0.05
0.04
0.14
0.37
0.69
1.04
1.37
1.63
1.78
1.81
1.69
1.45
1.14
0.87
0.72
0.77
0.98
1.26
1.51
1.65
1.69
1.68
1.70
1.81
2.00
2.23
2.47
2.65
2.77
2.81
2.80
2.74
2.65
2.54
2.41
2.28
2.21
2.23
2.35
2.51
2.65
2.69
2.63
2.52
2.45
2.44
2.47
2.46
2.37
2.18
1.96
1.81
1.77
1.88
2.07
2.28
2.44
2.51
2.45
2.28
2.03
1.76
1.54
1.42
1.39
1.44
1.54
1.67
1.81
1.93
1.98
1.92
1.73
1.45
1.14
0.92
0.83
0.91
1.10
1.33
1.53
1.64
1.61
1.46
1.24
0.99
0.74
0.48
0.21
-0.06
-0.29
-0.39
-0.29
-0.02
0.30
0.52
0.55
0.42
0.27
0.26
0.47
0.82
1.17
1.41
1.52
1.58
1.70
1.91
2.14
2.26
2.16
1.85
1.42
1.02
0.72
0.54
0.39
0.22
0.02
-0.14
-0.19
-0.10
0.10
0.30
0.43
0.43
0.35
0.26
0.24
0.28
0.37
0.44
0.44
0.39
0.30
0.24
0.26
0.37
0.56
0.78
0.97
1.10
1.15
1.12
1.01
0.83
0.63
0.45
0.36
0.37
0.46
0.56
0.61
0.58
0.52
0.50
0.54
0.63
0.66
0.54
0.25
-0.15
-0.52
-0.75
-0.82
-0.77
-0.65
-0.51
-0.36
-0.17
0.05
0.27
0.43
0.49
0.46
0.41
0.42
0.55
0.78
1.06
1.30
1.44
1.43
1.29
1.07
0.81
0.59
0.44
0.37
0.40
0.51
0.66
0.81
0.90
0.89
0.76
0.56
0.35
0.18
0.09
0.05
-0.02
-0.19
-0.49
-0.89
-1.29
-1.57
-1.63
-1.44
-1.04
-0.53
-0.02
0.38
0.61
0.67
0.62
0.52
0.47
0.52
0.68
0.88
1.06
1.14
1.10
0.97
0.82
0.71
0.67
0.68
0.72
0.74
0.73
0.66
0.54
0.36
0.18
0.01
-0.09
-0.12
-0.09
0.00
0.14
0.30
0.49
0.65
0.72
0.63
0.36
-0.06
-0.50
-0.81
-0.87
-0.64
-0.21
0.23
0.50
0.50
0.24
-0.15
-0.48
-0.64
-0.57
-0.36
-0.11
0.06
0.10
0.02
-0.10
-0.20
-0.20
-0.08
0.13
0.36
0.55
0.67
0.70
0.69
0.67
0.62
0.51
0.30
0.02
-0.25
-0.41
-0.40
-0.24
-0.02
0.17
0.26
0.31
0.37
0.48
0.63
0.70
0.59
0.31
-0.05
-0.31
-0.33
-0.11
0.24
0.53
0.60
0.41
0.04
-0.33
-0.58
-0.65
-0.57
-0.46
-0.39
-0.40
-0.45
-0.47
-0.37
-0.15
0.16
0.45
0.65
0.71
0.69
0.65
0.65
0.68
0.69
0.59
0.39
0.13
-0.07
-0.15
-0.09
0.03
0.12
0.15
0.14
0.13
0.17
0.21
0.18
0.00
-0.32
-0.69
-0.99
-1.10
-1.01
-0.76
-0.46
-0.16
0.11
0.35
0.57
0.73
0.77
0.67
0.46
0.22
0.07
0.06
0.15
0.26
0.29
0.20
0.03
-0.11
-0.13
0.02
0.29
0.59
0.84
0.94
0.93
0.86
0.80
0.80
0.84
0.84
0.71
0.43
0.05
-0.30
-0.53
-0.60
-0.56
-0.46
-0.37
-0.29
-0.22
-0.17
-0.17
-0.25
-0.37
-0.47
-0.48
-0.38
-0.24
-0.16
-0.20
-0.34
-0.49
-0.59
-0.58
-0.53
-0.47
-0.42
-0.33
-0.13
0.21
0.60
0.93
1.08
0.99
0.74
0.44
0.22
0.16
0.24
0.40
0.55
0.63
0.61
0.53
0.43
0.31
0.15
-0.06
-0.30
-0.50
-0.56
-0.42
-0.09
0.33
0.70
0.89
0.84
0.60
0.26
-0.06
-0.29
-0.41
-0.46
-0.46
-0.44
-0.39
-0.31
-0.16
0.05
0.28
0.48
0.57
0.50
0.27
-0.05
-0.39
-0.63
-0.72
-0.62
-0.40
-0.12
0.13
0.27
0.29
0.18
-0.00
-0.24
-0.47
-0.65
-0.75
-0.71
-0.55
-0.26
0.09
0.41
0.63
0.71
0.66
0.54
0.43
0.37
0.34
0.29
0.20
0.08
-0.00
-0.01
0.04
0.08
0.04
-0.10
-0.30
-0.44
-0.44
-0.28
-0.06
0.13
0.23
0.21
0.14
0.07
0.03
0.03
0.07
0.14
0.24
0.35
0.43
0.43
0.34
0.18
0.01
-0.10
-0.11
-0.01
0.18
0.45
0.73
0.99
1.16
1.19
1.05
0.76
0.39
-0.00
-0.34
-0.58
-0.72
-0.74
-0.65
-0.45
-0.18
0.08
0.26
0.32
0.25
0.10
-0.05
-0.10
0.00
0.30
0.78
1.40
2.09
2.73
3.21
3.43
3.34
3.01
2.57
2.19
1.98
1.98
2.14
2.37
2.59
2.72
2.75
2.72
2.63
2.50
2.32
2.14
2.10
2.29
2.77
3.42
3.95
4.06
3.51
2.29
0.62
-1.16
-2.75
-3.97
-4.83
-5.43
-5.89
-6.27
-6.53
-6.64
-6.60
-6.46
-6.36
-6.38
-6.55
-6.76
-6.75
-6.26
-5.12
-3.34
-1.20
0.88
2.49
3.39
3.53
3.05
2.17
1.07
-0.08
-1.15
-2.01
-2.57
-2.77
-2.67
-2.42
-2.18
-2.08
-2.12
-2.19
-2.16
-1.96
-1.67
-1.43
-1.43
-1.73
-2.27
-2.87
-3.32
-3.46
-3.30
-2.97
-2.65
-2.51
-2.59
-2.86
-3.19
-3.44
-3.50
-3.31
-2.82
-2.03
-0.97
0.30
1.69
3.03
4.17
5.03
5.59
5.90
6.07
6.14
6.09
5.85
5.35
4.58
3.67
2.82
2.22
1.97
2.01
2.17
2.23
2.04
1.59
1.01
0.47
0.10
-0.03
0.07
0.33
0.69
1.08
1.46
1.78
2.01
2.10
2.02
1.73
1.21
0.52
-0.17
-0.68
-0.81
-0.49
0.16
0.91
1.50
1.76
1.69
1.40
1.07
0.83
0.69
0.61
0.54
0.45
0.36
0.29
0.27
0.26
0.20
0.04
-0.26
-0.67
-1.13
-1.56
-1.92
-2.18
-2.37
-2.48
-2.50
-2.42
-2.18
-1.78
-1.26
-0.70
-0.18
0.21
0.44
0.56
0.58
0.53
0.42
0.24
0.00
-0.26
-0.46
-0.53
-0.43
-0.18
0.15
0.46
0.68
0.78
0.79
0.78
0.79
0.87
1.03
1.23
1.42
1.58
1.64
1.58
1.42
1.18
0.90
0.63
0.41
0.24
0.15
0.09
0.04
-0.04
-0.17
-0.35
-0.54
-0.68
-0.75
-0.71
-0.58
-0.41
-0.25
-0.16
-0.18
-0.29
-0.49
-0.75
-1.03
-1.30
-1.51
-1.60
-1.58
-1.43
-1.22
-1.01
-0.87
-0.82
-0.85
-0.91
-0.92
-0.88
-0.80
-0.71
-0.62
-0.49
-0.26
0.10
0.56
1.01
1.30
1.30
1.00
0.52
0.06
-0.23
-0.26
-0.11
0.07
0.14
0.03
-0.19
-0.44
-0.60
-0.64
-0.56
-0.42
-0.22
0.03
0.34
0.70
1.04
1.25
1.23
0.95
0.48
-0.02
-0.38
-0.49
-0.38
-0.15
0.05
0.14
0.12
0.04
-0.07
-0.18
-0.30
-0.46
-0.60
-0.68
-0.67
-0.56
-0.41
-0.28
-0.20
-0.15
-0.08
0.03
0.16
0.25
0.26
0.17
0.03
-0.12
-0.22
-0.26
-0.24
-0.20
-0.17
-0.14
-0.11
-0.07
-0.01
0.07
0.13
0.11
-0.02
-0.25
-0.56
-0.88
-1.14
-1.29
-1.32
-1.22
-1.02
-0.79
-0.58
-0.45
-0.42
-0.46
-0.50
-0.49
-0.42
-0.34
-0.33
-0.39
-0.50
-0.55
-0.44
-0.15
0.24
0.57
0.74
0.72
0.59
0.49
0.52
0.68
0.85
0.88
0.70
0.33
-0.10
-0.42
-0.54
-0.46
-0.30
-0.18
-0.20
-0.37
-0.65
-0.93
-1.16
-1.30
-1.35
-1.33
-1.28
-1.22
-1.15
-1.04
-0.88
-0.71
-0.56
-0.48
-0.50
-0.59
-0.73
-0.91
-1.13
-1.41
-1.72
-1.94
-1.95
-1.63
-1.02
-0.28
0.36
0.75
0.85
0.79
0.78
0.95
1.31
1.78
2.24
2.60
2.80
2.83
2.70
2.43
2.02
1.55
1.10
0.77
0.63
0.70
0.93
1.24
1.52
1.71
1.78
1.74
1.59
1.36
1.07
0.76
0.50
0.37
0.39
0.53
0.68
0.73
0.63
0.41
0.17
0.01
-0.03
0.03
0.13
0.20
0.24
0.27
0.31
0.36
0.39
0.34
0.17
-0.13
-0.48
-0.80
-0.98
-0.96
-0.77
-0.49
-0.20
0.03
0.20
0.33
0.46
0.56
0.58
0.46
0.19
-0.17
-0.48
-0.60
-0.46
-0.10
0.39
0.88
1.28
1.51
1.59
1.56
1.44
1.24
0.95
0.56
0.08
-0.41
-0.79
-0.96
-0.82
-0.41
0.12
0.55
0.69
0.45
-0.08
-0.67
-1.08
-1.15
-0.88
-0.43
0.01
0.30
0.41
0.39
0.33
0.24
0.10
-0.10
-0.34
-0.53
-0.59
-0.47
-0.22
0.02
0.12
0.03
-0.23
-0.55
-0.82
-0.98
-1.05
-1.10
-1.16
-1.24
-1.27
-1.17
-0.93
-0.65
-0.48
-0.56
-0.94
-1.53
-2.18
-2.72
-3.05
-3.19
-3.21
-3.20
-3.19
-3.18
-3.11
-3.00
-2.91
-2.93
-3.12
-3.48
-3.94
-4.39
-4.75
-5.01
-5.19
-5.30
-5.33
-5.20
-4.82
-4.13
-3.13
-1.86
-0.44
0.97
2.21
3.16
3.74
3.97
3.90
3.63
3.22
2.70
2.13
1.56
1.10
0.84
0.82
1.00
1.25
1.44
1.50
1.44
1.30
1.18
1.13
1.15
1.26
1.44
1.69
1.99
2.29
2.57
2.79
2.97
3.10
3.21
3.28
3.28
3.21
3.04
2.79
2.49
2.19
1.96
1.86
1.87
1.97
2.06
2.07
1.97
1.77
1.51
1.23
0.96
0.74
0.60
0.59
0.74
1.01
1.28
1.39
1.25
0.89
0.44
0.05
-0.14
-0.12
0.03
0.21
0.32
0.32
0.24
0.12
-0.03
-0.18
-0.33
-0.47
-0.56
-0.54
-0.38
-0.10
0.24
0.51
0.60
0.46
0.11
-0.31
-0.63
-0.72
-0.53
-0.13
0.34
0.70
0.85
0.76
0.49
0.18
-0.03
-0.05
0.10
0.31
0.45
0.44
0.28
0.05
-0.11
-0.14
-0.05
0.05
0.08
-0.03
-0.25
-0.50
-0.68
-0.78
-0.80
-0.81
-0.85
-0.94
-1.04
-1.11
-1.09
-0.94
-0.64
-0.20
0.33
0.88
1.34
1.60
1.64
1.48
1.19
0.88
0.66
0.57
0.58
0.62
0.60
0.45
0.19
-0.12
-0.37
-0.47
-0.39
-0.22
-0.07
-0.06
-0.20
-0.40
-0.51
-0.41
-0.07
0.39
0.81
1.01
0.95
0.68
0.34
0.09
-0.00
0.03
0.09
0.07
-0.09
-0.36
-0.67
-0.91
-1.04
-1.07
-1.05
-1.03
-1.05
-1.08
-1.10
-1.08
-1.02
-0.90
-0.75
-0.55
-0.33
-0.09
0.14
0.36
0.53
0.63
0.68
0.71
0.75
0.84
0.93
0.97
0.89
0.66
0.32
-0.03
-0.28
-0.37
-0.31
-0.13
0.12
0.42
0.72
0.97
1.10
1.03
0.79
0.46
0.15
-0.04
-0.14
-0.20
-0.27
-0.34
-0.36
-0.28
-0.09
0.14
0.27
0.25
0.07
-0.17
-0.39
-0.52
-0.57
-0.60
-0.67
-0.81
-1.00
-1.20
-1.33
-1.34
-1.18
-0.87
-0.43
0.01
0.37
0.56
0.57
0.47
0.37
0.35
0.41
0.51
0.54
0.49
0.37
0.25
0.19
0.22
0.29
0.33
0.29
0.19
0.06
-0.06
-0.15
-0.21
-0.27
-0.32
-0.36
-0.39
-0.40
-0.41
-0.38
-0.33
-0.22
-0.06
0.12
0.26
0.28
0.15
-0.10
-0.40
-0.63
-0.72
-0.63
-0.42
-0.16
0.05
0.16
0.19
0.19
0.21
0.29
0.38
0.45
0.44
0.32
0.13
-0.09
-0.25
-0.32
-0.30
-0.25
-0.19
-0.12
-0.05
0.09
0.28
0.48
0.61
0.59
0.40
0.12
-0.13
-0.22
-0.12
0.12
0.35
0.50
0.52
0.46
0.39
0.34
0.31
0.28
0.26
0.29
0.45
0.74
1.04
1.18
0.99
0.44
-0.33
-1.02
-1.36
-1.22
-0.70
-0.06
0.40
0.53
0.34
-0.01
-0.30
-0.45
-0.49
-0.50
-0.54
-0.58
-0.51
-0.27
0.12
0.50
0.69
0.58
0.23
-0.20
-0.49
-0.55
-0.39
-0.12
0.14
0.33
0.49
0.64
0.77
0.82
0.72
0.46
0.14
-0.13
-0.24
-0.16
0.05
0.26
0.39
0.41
0.36
0.29
0.25
0.22
0.17
0.06
-0.11
-0.32
-0.54
-0.71
-0.79
-0.75
-0.58
-0.32
-0.01
0.28
0.51
0.66
0.74
0.81
0.87
0.94
1.02
1.11
1.21
1.31
1.42
1.51
1.58
1.66
1.76
1.88
1.99
2.07
2.13
2.21
2.38
2.65
2.99
3.31
3.56
3.73
3.92
4.25
4.74
5.28
5.72
5.91
5.88
5.80
5.85
6.15
6.64
7.19
7.65
7.97
8.16
8.23
8.19
7.98
7.50
6.71
5.58
4.09
2.27
0.15
-2.18
-4.57
-6.80
-8.64
-9.93
-10.58
-10.61
-10.12
-9.31
-8.37
-7.44
-6.64
-5.98
-5.47
-5.09
-4.83
-4.67
-4.59
-4.48
-4.26
-3.92
-3.49
-3.10
-2.88
-2.88
-3.09
-3.43
-3.81
-4.21
-4.64
-5.15
-5.77
-6.50
-7.32
-8.20
-9.13
-10.05
-10.90
-11.61
-12.14
-12.54
-12.95
-13.58
-14.53
-15.73
-16.88
-17.57
-17.54
-16.83
-15.92
-15.51
-16.26
-18.40
-21.60
-25.11
-28.09
-29.98
-30.85
-31.33
-32.36
-34.76
-38.83
-44.21
-49.98
-55.05
-58.57
-60.26
-60.51
-60.20
-60.49
-62.52
-67.16
-74.60
-83.95
-92.90
-97.86
-94.89
-81.19
-56.61
-24.13
10.87
42.53
66.57
81.54
88.71
90.76
90.21
88.42
85.67
81.89
77.48
73.46
71.00
70.66
71.90
73.24
72.98
70.19
65.16
59.48
55.21
53.95
55.91
59.77
63.24
64.14
61.44
55.78
49.16
44.05
42.23
44.03
48.14
52.40
54.71
54.05
50.91
46.99
44.43
44.96
49.40
57.44
67.67
77.65
84.06
82.90
70.30
43.83
3.82
-45.98
-99.08
-148.22
-187.86
-215.75
-232.97
-242.10
-244.76
-240.19
-225.72
-199.07
-160.80
-115.35
-69.74
-30.67
-1.81
17.35
30.11
40.05
48.81
55.64
58.60
56.57
50.57
43.44
38.36
37.17
39.59
43.70
47.20
48.66
47.95
45.94
43.73
41.92
40.40
38.59
35.89
32.19
27.91
23.82
20.64
18.80
18.31
18.86
20.00
21.21
21.99
21.82
20.27
17.15
12.67
7.54
2.82
-0.44
-1.63
-0.87
1.15
3.52
5.55
6.96
7.81
8.06
7.40
5.38
1.73
-3.10
-7.91
-11.12
-11.53
-8.85
-3.87
1.90
6.90
10.04
10.84
9.49
6.58
2.97
-0.36
-2.48
-2.83
-1.36
1.54
5.33
9.57
14.04
18.54
22.56
25.23
25.61
23.34
19.16
14.82
12.45
13.60
18.39
25.53
33.03
39.20
43.36
45.79
47.17
47.85
47.60
46.04
43.20
39.93
37.79
38.26
41.95
48.42
56.51
65.21
74.20
83.91
94.58
105.28
113.24
114.42
105.05
83.62
52.08
15.56
-19.35
-47.19
-65.50
-75.21
-79.43
-81.28
-82.29
-82.01
-79.02
-72.47
-63.20
-53.67
-46.93
-45.01
-48.02
-54.13
-60.45
-64.44
-64.93
-62.42
-58.54
-54.97
-52.59
-51.11
-49.49
-46.69
-42.37
-37.13
-32.11
-28.39
-26.41
-25.81
-25.71
-25.10
-23.33
-20.37
-16.75
-13.28
-10.70
-9.38
-9.12
-9.37
-9.44
-8.86
-7.58
-5.96
-4.48
-3.56
-3.26
-3.34
-3.45
-3.27
-2.72
-1.90
-0.98
-0.09
0.70
1.37
1.90
2.22
2.29
2.16
1.93
1.72
1.58
1.49
1.34
1.08
0.70
0.30
0.01
-0.13
-0.13
-0.11
-0.17
-0.36
-0.65
-0.94
-1.12
-1.11
-0.90
-0.54
-0.15
0.13
0.19
0.05
-0.20
-0.40
-0.42
-0.22
0.11
0.39
0.46
0.24
-0.21
-0.76
-1.20
-1.44
-1.44
-1.29
-1.11
-1.01
-1.01
-1.05
-1.03
-0.87
-0.58
-0.18
0.24
0.64
1.00
1.27
1.43
1.45
1.30
1.04
0.76
0.56
0.53
0.64
0.77
0.82
0.69
0.39
0.02
-0.31
-0.50
-0.52
-0.40
-0.23
-0.08
-0.01
-0.02
-0.05
-0.01
0.14
0.39
0.63
0.74
0.63
0.30
-0.15
-0.52
-0.69
-0.60
-0.35
-0.09
0.04
0.02
-0.09
-0.21
-0.27
-0.27
-0.25
-0.24
-0.25
-0.22
-0.10
0.14
0.46
0.76
0.95
0.96
0.78
0.44
0.04
-0.31
-0.49
-0.42
-0.12
0.31
0.70
0.91
0.86
0.61
0.27
-0.02
-0.17
-0.17
-0.03
0.18
0.45
0.70
0.87
0.84
0.55
0.03
-0.55
-1.00
-1.11
-0.86
-0.38
0.09
0.34
0.33
0.15
-0.02
-0.03
0.10
0.25
0.27
0.07
-0.30
-0.69
-0.98
-1.09
-1.03
-0.86
-0.64
-0.42
-0.25
-0.18
-0.23
-0.35
-0.45
-0.42
-0.21
0.12
0.47
0.70
0.77
0.71
0.61
0.53
0.48
0.44
0.39
0.36
0.40
0.52
0.67
0.73
0.62
0.32
-0.09
-0.46
-0.66
-0.65
-0.45
-0.11
0.28
0.64
0.93
1.09
1.10
0.98
0.77
0.53
0.33
0.20
0.17
0.19
0.23
0.24
0.17
0.02
-0.19
-0.37
-0.45
-0.38
-0.17
0.09
0.29
0.38
0.38
0.40
0.55
0.82
1.12
1.26
1.09
0.60
-0.08
-0.72
-1.11
-1.18
-1.01
-0.72
-0.46
-0.27
-0.15
-0.07
-0.03
-0.09
-0.28
-0.57
-0.86
-1.06
-1.10
-0.97
-0.72
-0.45
-0.18
0.05
0.24
0.37
0.43
0.40
0.28
0.12
-0.02
-0.08
-0.07
0.01
0.12
0.22
0.29
0.33
0.35
0.38
0.43
0.47
0.47
0.42
0.34
0.29
0.31
0.41
0.51
0.54
0.41
0.11
-0.29
-0.65
-0.87
-0.92
-0.82
-0.69
-0.59
-0.54
-0.50
-0.39
-0.19
0.05
0.25
0.34
0.29
0.18
0.09
0.08
0.16
0.28
0.40
0.48
0.55
0.62
0.72
0.85
0.96
0.98
0.90
0.70
0.42
0.13
-0.11
-0.25
-0.30
-0.31
-0.35
-0.44
-0.58
-0.69
-0.68
-0.54
-0.28
-0.02
0.15
0.16
-0.01
-0.27
-0.53
-0.71
-0.78
-0.77
-0.75
-0.77
-0.85
-0.93
-0.96
-0.87
-0.68
-0.42
-0.16
0.06
0.21
0.32
0.38
0.39
0.36
0.30
0.25
0.24
0.32
0.45
0.60
0.69
0.67
0.54
0.34
0.13
-0.02
-0.10
-0.11
-0.05
0.05
0.20
0.35
0.48
0.51
0.43
0.26
0.09
0.02
0.11
0.36
0.65
0.85
0.88
0.72
0.47
0.23
0.11
0.09
0.08
-0.03
-0.29
-0.66
-1.01
-1.17
-1.05
-0.68
-0.16
0.30
0.53
0.46
0.13
-0.29
-0.60
-0.68
-0.48
-0.12
0.21
0.34
0.22
-0.08
-0.36
-0.48
-0.37
-0.11
0.15
0.27
0.21
0.03
-0.15
-0.21
-0.14
0.05
0.26
0.45
0.58
0.67
0.71
0.71
0.63
0.44
0.14
-0.23
-0.58
-0.80
-0.81
-0.61
-0.32
-0.10
-0.08
-0.30
-0.65
-0.98
-1.12
-0.98
-0.61
-0.17
0.24
0.55
0.75
0.89
0.98
0.99
0.88
0.62
0.29
0.02
-0.08
0.03
0.25
0.43
0.40
0.13
-0.29
-0.67
-0.86
-0.80
-0.54
-0.24
-0.03
0.03
-0.02
-0.09
-0.06
0.12
0.43
0.78
1.05
1.15
1.07
0.88
0.68
0.58
0.61
0.72
0.82
0.80
0.59
0.23
-0.20
-0.60
-0.91
-1.09
-1.14
-1.07
-0.90
-0.66
-0.39
-0.10
0.16
0.37
0.48
0.47
0.33
0.12
-0.08
-0.20
-0.19
-0.07
0.08
0.21
0.26
0.23
0.17
0.13
0.11
0.13
0.16
0.16
0.13
0.03
-0.12
-0.30
-0.49
-0.65
-0.76
-0.81
-0.79
-0.69
-0.51
-0.25
0.05
0.30
0.44
0.42
0.25
0.01
-0.22
-0.35
-0.34
-0.20
-0.00
0.18
0.27
0.26
0.15
0.04
-0.01
0.05
0.21
0.39
0.50
0.48
0.37
0.25
0.21
0.29
0.46
0.59
0.57
0.34
-0.02
-0.39
-0.62
-0.63
-0.47
-0.25
-0.08
-0.03
-0.12
-0.28
-0.47
-0.63
-0.69
-0.62
-0.39
-0.02
0.43
0.84
1.09
1.11
0.89
0.51
0.08
-0.30
-0.55
-0.61
-0.48
-0.21
0.16
0.51
0.76
0.84
0.75
0.51
0.18
-0.17
-0.44
-0.60
-0.61
-0.50
-0.32
-0.14
0.02
0.13
0.21
0.26
0.28
0.26
0.20
0.12
0.01
-0.09
-0.20
-0.33
-0.46
-0.59
-0.66
-0.63
-0.44
-0.10
0.33
0.75
1.00
0.98
0.66
0.15
-0.36
-0.68
-0.71
-0.49
-0.20
-0.06
-0.16
-0.45
-0.74
-0.84
-0.68
-0.36
-0.05
0.10
0.10
0.12
0.34
0.84
1.48
1.99
2.12
1.81
1.19
0.55
0.11
-0.07
-0.13
-0.23
-0.46
-0.76
-0.93
-0.85
-0.53
-0.11
0.18
0.20
-0.03
-0.36
-0.59
-0.57
-0.33
0.00
0.27
0.36
0.27
0.10
-0.04
-0.08
-0.02
0.07
0.13
0.12
0.07
0.05
0.10
0.24
0.39
0.49
0.45
0.26
-0.02
-0.34
-0.59
-0.77
-0.86
-0.88
-0.87
-0.85
-0.82
-0.79
-0.77
-0.71
-0.58
-0.35
-0.05
0.26
0.49
0.58
0.53
0.39
0.22
0.11
0.08
0.10
0.16
0.22
0.24
0.21
0.12
0.00
-0.11
-0.16
-0.11
0.07
0.33
0.58
0.70
0.64
0.38
-0.00
-0.42
-0.75
-0.93
-0.92
-0.74
-0.44
-0.07
0.29
0.59
0.77
0.80
0.66
0.37
-0.00
-0.36
-0.62
-0.71
-0.66
-0.51
-0.32
-0.16
-0.07
-0.05
-0.12
-0.28
-0.49
-0.67
-0.69
-0.45
0.06
0.70
1.24
1.42
1.14
0.48
-0.35
-1.05
-1.41
-1.33
-0.90
-0.26
0.38
0.88
1.11
1.06
0.76
0.34
-0.08
-0.36
-0.45
-0.39
-0.27
-0.22
-0.25
-0.33
-0.38
-0.36
-0.26
-0.12
-0.00
0.11
0.26
0.48
0.71
0.88
0.89
0.70
0.38
0.06
-0.16
-0.22
-0.17
-0.10
-0.09
-0.15
-0.24
-0.32
-0.38
-0.45
-0.55
-0.65
-0.67
-0.54
-0.23
0.21
0.62
0.86
0.85
0.62
0.27
-0.06
-0.29
-0.38
-0.36
-0.26
-0.13
-0.00
0.10
0.13
0.11
0.05
0.02
0.02
0.01
-0.07
-0.23
-0.41
-0.48
-0.32
0.08
0.59
0.99
1.12
0.95
0.62
0.35
0.25
0.27
0.26
0.06
-0.34
-0.81
-1.14
-1.14
-0.81
-0.32
0.11
0.31
0.26
0.08
-0.06
-0.06
0.07
0.23
0.33
0.31
0.26
0.25
0.35
0.52
0.67
0.72
0.65
0.52
0.42
0.37
0.37
0.36
0.31
0.24
0.17
0.14
0.16
0.21
0.24
0.23
0.16
0.01
-0.22
-0.54
-0.86
-1.08
-1.11
-0.91
-0.53
-0.11
0.20
0.33
0.26
0.09
-0.09
-0.23
-0.31
-0.32
-0.28
-0.15
0.07
0.32
0.56
0.69
0.67
0.48
0.17
-0.20
-0.55
-0.78
-0.83
-0.70
-0.41
-0.04
0.29
0.50
0.60
0.65
0.72
0.86
1.02
1.10
0.99
0.71
0.32
-0.02
-0.21
-0.25
-0.23
-0.23
-0.27
-0.30
-0.23
0.01
0.36
0.66
0.75
0.53
0.06
-0.47
-0.85
-0.94
-0.74
-0.37
-0.01
0.22
0.27
0.20
0.13
0.12
0.16
0.17
0.06
-0.21
-0.55
-0.83
-0.93
-0.80
-0.53
-0.24
-0.09
-0.11
-0.27
-0.49
-0.66
-0.75
-0.74
-0.62
-0.38
-0.02
0.38
0.71
0.87
0.81
0.59
0.34
0.18
0.17
0.27
0.38
0.44
0.44
0.43
0.48
0.60
0.74
0.84
0.85
0.77
0.63
0.50
0.40
0.33
0.27
0.20
0.09
-0.07
-0.27
-0.50
-0.71
-0.87
-0.95
-0.95
-0.87
-0.73
-0.53
-0.27
0.05
0.38
0.66
0.83
0.87
0.77
0.56
0.24
-0.15
-0.55
-0.87
-1.01
-0.91
-0.57
-0.11
0.31
0.54
0.49
0.20
-0.20
-0.52
-0.63
-0.49
-0.19
0.15
0.35
0.32
0.07
-0.33
-0.74
-1.04
-1.15
-1.04
-0.74
-0.32
0.10
0.45
0.63
0.64
0.50
0.25
-0.03
-0.30
-0.53
-0.67
-0.66
-0.48
-0.12
0.35
0.83
1.20
1.34
1.25
0.96
0.60
0.28
0.09
0.02
0.03
0.03
-0.03
-0.11
-0.14
-0.04
0.17
0.41
0.54
0.50
0.33
0.16
0.10
0.20
0.38
0.49
0.43
0.19
-0.14
-0.42
-0.55
-0.51
-0.39
-0.29
-0.27
-0.35
-0.50
-0.69
-0.86
-0.98
-1.04
-1.01
-0.90
-0.70
-0.44
-0.17
0.07
0.21
0.24
0.21
0.17
0.18
0.21
0.24
0.22
0.14
0.06
0.06
0.19
0.42
0.66
0.79
0.75
0.56
0.32
0.12
0.03
0.03
0.11
0.21
0.29
0.33
0.30
0.22
0.09
-0.06
-0.20
-0.31
-0.37
-0.38
-0.33
-0.23
-0.07
0.16
0.42
0.67
0.81
0.76
0.48
0.03
-0.48
-0.87
-1.02
-0.92
-0.63
-0.32
-0.11
-0.07
-0.16
-0.29
-0.36
-0.30
-0.13
0.07
0.18
0.11
-0.16
-0.55
-0.91
-1.09
-1.01
-0.74
-0.43
-0.23
-0.21
-0.32
-0.43
-0.39
-0.14
0.29
0.77
1.17
1.37
1.31
1.01
0.54
0.01
-0.45
-0.77
-0.93
-0.94
-0.89
-0.80
-0.68
-0.53
-0.31
0.01
0.38
0.72
0.93
0.95
0.75
0.40
-0.01
-0.35
-0.54
-0.57
-0.48
-0.36
-0.30
-0.32
-0.39
-0.47
-0.47
-0.35
-0.12
0.19
0.50
0.71
0.76
0.66
0.46
0.24
0.11
0.12
0.27
0.49
0.70
0.79
0.72
0.50
0.22
-0.02
-0.12
-0.08
0.03
0.09
-0.01
-0.29
-0.65
-0.95
-1.05
-0.88
-0.49
-0.04
0.33
0.51
0.49
0.32
0.10
-0.08
-0.17
-0.16
-0.08
0.03
0.16
0.28
0.36
0.35
0.21
-0.08
-0.46
-0.82
-1.04
-1.03
-0.81
-0.47
-0.12
0.14
0.29
0.34
0.33
0.30
0.26
0.19
0.10
0.01
-0.06
-0.08
-0.03
0.08
0.25
0.44
0.65
0.85
0.99
1.03
0.96
0.76
0.47
0.14
-0.15
-0.37
-0.46
-0.44
-0.36
-0.27
-0.22
-0.22
-0.21
-0.13
0.04
0.29
0.52
0.61
0.51
0.27
0.00
-0.13
-0.06
0.16
0.41
0.54
0.51
0.35
0.15
-0.02
-0.18
-0.35
-0.54
-0.70
-0.74
-0.60
-0.30
0.06
0.31
0.32
0.06
-0.40
-0.88
-1.22
-1.32
-1.14
-0.74
-0.25
0.21
0.54
0.70
0.73
0.67
0.56
0.43
0.30
0.18
0.07
-0.00
-0.05
-0.09
-0.14
-0.22
-0.29
-0.28
-0.16
0.07
0.32
0.46
0.41
0.17
-0.19
-0.51
-0.70
-0.69
-0.55
-0.34
-0.16
-0.05
-0.01
0.01
-0.01
-0.08
-0.21
-0.38
-0.51
-0.52
-0.34
0.05
0.55
1.04
1.41
1.61
1.61
1.48
1.25
0.96
0.63
0.27
-0.12
-0.51
-0.85
-1.08
-1.15
-1.04
-0.75
-0.37
-0.05
0.08
-0.05
-0.40
-0.81
-1.09
-1.11
-0.87
-0.47
-0.06
0.22
0.33
0.32
0.24
0.16
0.11
0.07
0.05
0.06
0.09
0.16
0.22
0.24
0.20
0.10
-0.03
-0.15
-0.22
-0.22
-0.12
0.07
0.30
0.51
0.60
0.50
0.26
-0.02
-0.19
-0.18
-0.01
0.23
0.41
0.48
0.44
0.35
0.24
0.13
-0.00
-0.16
-0.33
-0.46
-0.50
-0.41
-0.21
0.04
0.28
0.46
0.55
0.56
0.52
0.47
0.46
0.51
0.61
0.73
0.84
0.89
0.87
0.78
0.60
0.34
-0.01
-0.43
-0.82
-1.09
-1.12
-0.84
-0.31
0.28
0.72
0.84
0.59
0.09
-0.47
-0.94
-1.23
-1.36
-1.33
-1.16
-0.82
-0.32
0.25
0.78
1.11
1.18
1.02
0.71
0.38
0.09
-0.12
-0.23
-0.25
-0.18
-0.06
0.04
0.05
-0.03
-0.17
-0.26
-0.19
0.09
0.50
0.89
1.09
1.02
0.69
0.25
-0.11
-0.28
-0.25
-0.11
0.01
0.02
-0.11
-0.33
-0.55
-0.74
-0.85
-0.90
-0.90
-0.86
-0.77
-0.65
-0.51
-0.35
-0.18
-0.00
0.20
0.39
0.56
0.67
0.73
0.72
0.67
0.57
0.44
0.28
0.12
-0.01
-0.06
-0.01
0.12
0.29
0.45
0.52
0.47
0.28
-0.02
-0.39
-0.76
-1.10
-1.37
-1.55
-1.62
-1.60
-1.53
-1.51
-1.60
-1.85
-2.21
-2.59
-2.87
-2.98
-2.96
-2.92
-2.99
-3.31
-3.87
-4.58
-5.27
-5.78
-6.04
-6.06
-5.96
-5.94
-6.17
-6.73
-7.60
-8.59
-9.46
-9.99
-10.08
-9.80
-9.31
-8.79
-8.37
-8.10
-8.04
-8.29
-8.98
-10.17
-11.76
-13.45
-14.84
-15.65
-15.86
-15.77
-15.87
-16.53
-17.81
-19.41
-20.80
-21.54
-21.47
-20.80
-19.91
-19.16
-18.68
-18.37
-18.05
-17.68
-17.39
-17.44
-18.00
-18.99
-20.10
-20.95
-21.38
-21.49
-21.57
-21.83
-22.14
-21.90
-20.20
-16.18
-9.38
0.01
11.14
22.74
33.42
42.07
48.05
51.24
51.95
50.79
48.42
45.47
42.40
39.57
37.15
35.22
33.70
32.42
31.14
29.65
27.87
25.86
23.82
21.98
20.55
19.59
19.03
18.65
18.20
17.45
16.29
14.80
13.19
11.72
10.60
9.88
9.44
9.11
8.74
8.32
7.93
7.65
7.47
7.21
6.68
5.73
4.49
3.31
2.63
2.79
3.84
5.49
7.19
8.43
8.95
8.91
8.81
9.25
10.61
12.83
15.42
17.69
19.16
19.73
19.76
19.88
20.64
22.40
25.34
29.57
34.94
40.64
44.94
45.53
40.32
28.68
12.12
-6.04
-21.95
-32.79
-37.87
-38.47
-36.82
-34.81
-33.21
-31.81
-30.11
-28.00
-25.93
-24.52
-24.09
-24.37
-24.70
-24.42
-23.13
-20.93
-18.33
-15.94
-14.25
-13.45
-13.38
-13.61
-13.61
-13.00
-11.69
-9.91
-8.13
-6.83
-6.26
-6.34
-6.70
-6.87
-6.53
-5.66
-4.50
-3.42
-2.71
-2.47
-2.56
-2.73
-2.73
-2.49
-2.05
-1.59
-1.25
-1.11
-1.11
-1.19
-1.24
-1.23
-1.17
-1.07
-0.91
-0.68
-0.36
0.00
0.33
0.54
0.60
0.53
0.41
0.32
0.29
0.28
0.24
0.15
0.06
0.05
0.19
0.47
0.80
1.04
1.08
0.89
0.52
0.06
-0.41
-0.83
-1.18
-1.47
-1.66
-1.71
-1.60
-1.34
-1.00
-0.64
-0.32
-0.07
0.13
0.34
0.57
0.82
1.04
1.17
1.14
0.94
0.60
0.21
-0.16
-0.43
-0.57
-0.57
-0.44
-0.21
0.10
0.46
0.81
1.11
1.31
1.43
1.46
1.40
1.23
0.94
0.55
0.14
-0.16
-0.21
0.03
0.47
0.93
1.21
1.22
0.98
0.66
0.43
0.38
0.48
0.60
0.57
0.33
-0.05
-0.44
-0.69
-0.76
-0.66
-0.50
-0.38
-0.35
-0.41
-0.55
-0.71
-0.82
-0.84
-0.74
-0.54
-0.31
-0.15
-0.12
-0.20
-0.34
-0.48
-0.61
-0.77
-0.95
-1.08
-1.02
-0.66
0.02
0.86
1.59
1.99
1.99
1.69
1.33
1.11
1.10
1.24
1.40
1.44
1.33
1.12
0.89
0.71
0.56
0.45
0.34
0.25
0.23
0.32
0.54
0.82
1.07
1.17
1.05
0.75
0.34
-0.06
-0.37
-0.58
-0.70
-0.76
-0.78
-0.72
-0.58
-0.36
-0.09
0.16
0.32
0.38
0.38
0.38
0.44
0.57
0.71
0.78
0.68
0.41
0.03
-0.32
-0.51
-0.47
-0.27
-0.03
0.11
0.09
-0.06
-0.22
-0.31
-0.29
-0.23
-0.23
-0.36
-0.61
-0.89
-1.04
-1.00
-0.77
-0.45
-0.18
-0.05
-0.08
-0.22
-0.39
-0.52
-0.59
-0.60
-0.58
-0.53
-0.44
-0.32
-0.17
-0.03
0.05
0.05
-0.08
-0.34
-0.74
-1.24
-1.76
-2.17
-2.37
-2.29
-2.01
-1.63
-1.33
-1.24
-1.42
-1.82
-2.37
-2.92
-3.35
-3.54
-3.45
-3.08
-2.56
-2.02
-1.62
-1.42
-1.40
-1.44
-1.39
-1.13
-0.61
0.13
1.00
1.89
2.69
3.30
3.65
3.73
3.58
3.27
2.92
2.63
2.44
2.34
2.26
2.13
1.91
1.61
1.30
1.06
0.98
1.08
1.27
1.41
1.34
0.96
0.32
-0.45
-1.13
-1.58
-1.77
-1.79
-1.76
-1.75
-1.78
-1.80
-1.77
-1.69
-1.56
-1.39
-1.12
-0.69
-0.06
0.74
1.61
2.39
2.99
3.36
3.54
3.59
3.55
3.47
3.35
3.20
3.04
2.84
2.61
2.29
1.88
1.39
0.89
0.44
0.11
-0.06
-0.11
-0.10
-0.08
-0.12
-0.23
-0.37
-0.49
-0.54
-0.48
-0.35
-0.17
-0.00
0.11
0.15
0.12
0.02
-0.12
-0.29
-0.46
-0.61
-0.69
-0.68
-0.56
-0.37
-0.16
-0.02
0.01
-0.06
-0.20
-0.33
-0.37
-0.29
-0.14
0.02
0.10
0.09
0.02
-0.03
0.01
0.14
0.27
0.29
0.14
-0.18
-0.54
-0.81
-0.92
-0.85
-0.68
-0.50
-0.36
-0.26
-0.18
-0.11
-0.08
-0.15
-0.30
-0.51
-0.68
-0.74
-0.64
-0.37
0.03
0.47
0.87
1.16
1.27
1.20
0.96
0.66
0.38
0.20
0.11
0.08
-0.00
-0.17
-0.40
-0.62
-0.73
-0.66
-0.43
-0.09
0.24
0.49
0.59
0.54
0.40
0.21
0.05
-0.02
0.00
0.09
0.17
0.19
0.10
-0.08
-0.30
-0.47
-0.54
-0.51
-0.44
-0.37
-0.33
-0.30
-0.21
-0.04
0.22
0.50
0.72
0.85
0.88
0.87
0.87
0.90
0.94
0.90
0.74
0.42
0.01
-0.37
-0.60
-0.58
-0.29
0.17
0.62
0.89
0.89
0.64
0.24
-0.17
-0.45
-0.55
-0.44
-0.20
0.10
0.33
0.42
0.35
0.17
-0.01
-0.10
-0.08
0.02
0.11
0.14
0.12
0.09
0.13
0.26
0.45
0.65
0.82
0.92
0.92
0.77
0.46
0.03
-0.38
-0.60
-0.51
-0.11
0.42
0.86
1.02
0.83
0.38
-0.12
-0.52
-0.70
-0.69
-0.57
-0.44
-0.38
-0.41
-0.51
-0.60
-0.57
-0.38
-0.04
0.36
0.72
0.91
0.92
0.76
0.52
0.26
0.02
-0.20
-0.44
-0.67
-0.85
-0.90
-0.80
-0.60
-0.41
-0.34
-0.43
-0.61
-0.74
-0.72
-0.53
-0.26
-0.07
-0.06
-0.23
-0.49
-0.70
-0.77
-0.69
-0.52
-0.33
-0.15
-0.01
0.11
0.20
0.29
0.41
0.59
0.85
1.17
1.45
1.59
1.51
1.25
0.88
0.51
0.22
0.04
-0.02
0.04
0.22
0.47
0.73
0.89
0.83
0.55
0.15
-0.23
-0.43
-0.39
-0.14
0.20
0.50
0.67
0.67
0.53
0.29
0.02
-0.22
-0.39
-0.47
-0.46
-0.42
-0.37
-0.35
-0.33
-0.32
-0.29
-0.25
-0.25
-0.29
-0.36
-0.42
-0.45
-0.43
-0.40
-0.40
-0.45
-0.52
-0.58
-0.57
-0.48
-0.29
-0.05
0.25
0.56
0.85
1.07
1.16
1.10
0.95
0.76
0.59
0.47
0.33
0.11
-0.24
-0.70
-1.19
-1.60
-1.81
-1.76
-1.47
-1.01
-0.49
-0.07
0.15
0.12
-0.08
-0.33
-0.47
-0.42
-0.19
0.13
0.44
0.65
0.70
0.62
0.41
0.12
-0.22
-0.58
-0.94
-1.25
-1.47
-1.54
-1.41
-1.07
-0.56
0.00
0.43
0.59
0.40
-0.05
-0.58
-0.95
-1.02
-0.76
-0.29
0.19
0.52
0.60
0.45
0.18
-0.09
-0.23
-0.22
-0.09
0.09
0.26
0.35
0.37
0.30
0.15
-0.07
-0.34
-0.61
-0.82
-0.89
-0.79
-0.54
-0.25
-0.02
0.05
-0.03
-0.19
-0.30
-0.27
-0.10
0.15
0.36
0.44
0.39
0.29
0.25
0.30
0.42
0.51
0.47
0.28
-0.01
-0.28
-0.43
-0.44
-0.33
-0.21
-0.17
-0.23
-0.38
-0.54
-0.67
-0.71
-0.67
-0.58
-0.47
-0.37
-0.26
-0.10
0.10
0.31
0.44
0.42
0.25
-0.01
-0.23
-0.30
-0.20
0.03
0.27
0.42
0.44
0.37
0.25
0.13
0.02
-0.08
-0.17
-0.19
-0.13
0.00
0.17
0.30
0.33
0.25
0.08
-0.07
-0.16
-0.15
-0.09
-0.04
-0.06
-0.17
-0.32
-0.41
-0.40
-0.30
-0.17
-0.11
-0.18
-0.35
-0.54
-0.62
-0.56
-0.37
-0.15
0.05
0.22
0.41
0.65
0.93
1.16
1.24
1.14
0.89
0.63
0.45
0.41
0.46
0.52
0.53
0.46
0.34
0.21
0.10
0.03
-0.03
-0.08
-0.16
-0.29
-0.46
-0.65
-0.81
-0.88
-0.81
-0.61
-0.32
-0.01
0.25
0.42
0.47
0.41
0.28
0.08
-0.16
-0.40
-0.60
-0.72
-0.72
-0.61
-0.43
-0.22
-0.04
0.10
0.19
0.24
0.25
0.24
0.19
0.11
-0.01
-0.15
-0.30
-0.45
-0.55
-0.61
-0.59
-0.50
-0.37
-0.21
-0.08
0.04
0.13
0.22
0.29
0.33
0.31
0.23
0.10
-0.04
-0.16
-0.25
-0.31
-0.34
-0.34
-0.29
-0.17
-0.00
0.21
0.42
0.61
0.76
0.84
0.83
0.74
0.60
0.46
0.38
0.39
0.45
0.49
0.43
0.24
-0.03
-0.31
-0.49
-0.54
-0.42
-0.20
0.02
0.17
0.17
0.03
-0.21
-0.42
-0.53
-0.50
-0.37
-0.22
-0.13
-0.09
-0.07
0.02
0.23
0.50
0.72
0.79
0.67
0.47
0.32
0.37
0.63
0.95
1.14
1.04
0.66
0.14
-0.29
-0.50
-0.46
-0.28
-0.11
-0.07
-0.16
-0.34
-0.56
-0.79
-1.00
-1.20
-1.31
-1.29
-1.09
-0.73
-0.28
0.15
0.44
0.55
0.47
0.27
-0.01
-0.29
-0.53
-0.69
-0.76
-0.72
-0.62
-0.48
-0.35
-0.24
-0.12
0.06
0.29
0.55
0.75
0.80
0.67
0.42
0.17
-0.02
-0.12
-0.21
-0.38
-0.65
-0.98
-1.24
-1.29
-1.10
-0.74
-0.36
-0.07
0.07
0.11
0.09
0.06
0.00
-0.11
-0.25
-0.35
-0.32
-0.13
0.23
0.66
1.03
1.27
1.33
1.22
1.00
0.73
0.46
0.22
0.04
-0.05
-0.08
-0.09
-0.10
-0.12
-0.11
-0.01
0.18
0.40
0.56
0.59
0.49
0.31
0.18
0.17
0.29
0.44
0.51
0.42
0.20
-0.05
-0.20
-0.23
-0.20
-0.20
-0.33
-0.59
-0.85
-0.97
-0.86
-0.53
-0.09
0.30
0.53
0.57
0.50
0.43
0.43
0.54
0.72
0.91
1.05
1.10
1.04
0.89
0.69
0.45
0.19
-0.08
-0.34
-0.54
-0.66
-0.68
-0.62
-0.51
-0.40
-0.31
-0.25
-0.20
-0.18
-0.17
-0.18
-0.18
-0.15
-0.09
-0.04
-0.04
-0.09
-0.17
-0.18
-0.06
0.20
0.56
0.89
1.10
1.11
0.95
0.67
0.38
0.17
0.09
0.13
0.21
0.24
0.17
-0.02
-0.24
-0.42
-0.48
-0.42
-0.31
-0.22
-0.17
-0.13
-0.01
0.23
0.61
1.04
1.43
1.70
1.78
1.69
1.45
1.10
0.68
0.25
-0.14
-0.44
-0.56
-0.48
-0.23
0.14
0.49
0.72
0.77
0.66
0.42
0.12
-0.18
-0.41
-0.48
-0.35
-0.01
0.48
0.96
1.28
1.34
1.21
1.03
0.94
0.97
1.05
1.05
0.85
0.51
0.16
-0.07
-0.09
0.05
0.22
0.33
0.32
0.20
0.00
-0.25
-0.58
-0.96
-1.36
-1.70
-1.90
-1.93
-1.83
-1.64
-1.42
-1.20
-0.98
-0.76
-0.63
-0.64
-0.85
-1.22
-1.58
-1.75
-1.62
-1.21
-0.66
-0.20
-0.01
-0.15
-0.53
-0.97
-1.29
-1.40
-1.28
-1.02
-0.69
-0.38
-0.12
0.04
0.12
0.12
0.08
0.03
-0.00
-0.01
-0.02
-0.04
-0.07
-0.10
-0.12
-0.12
-0.09
-0.06
-0.01
0.05
0.13
0.23
0.36
0.51
0.64
0.71
0.66
0.48
0.19
-0.13
-0.36
-0.41
-0.27
0.02
0.32
0.53
0.57
0.48
0.34
0.23
0.20
0.25
0.36
0.48
0.62
0.73
0.79
0.76
0.59
0.31
-0.04
-0.36
-0.55
-0.55
-0.35
0.01
0.42
0.75
0.90
0.83
0.62
0.40
0.30
0.40
0.65
0.92
1.05
0.99
0.78
0.56
0.48
0.56
0.70
0.74
0.54
0.10
-0.44
-0.89
-1.12
-1.10
-0.96
-0.84
-0.88
-1.06
-1.29
-1.44
-1.40
-1.20
-0.92
-0.66
-0.52
-0.52
-0.62
-0.74
-0.82
-0.77
-0.60
-0.34
-0.06
0.16
0.28
0.31
0.31
0.34
0.41
0.48
0.46
0.32
0.09
-0.13
-0.24
-0.22
-0.10
0.04
0.12
0.14
0.14
0.19
0.31
0.46
0.55
0.55
0.43
0.26
0.11
0.01
-0.03
-0.05
-0.11
-0.23
-0.37
-0.52
-0.61
-0.61
-0.55
-0.46
-0.39
-0.32
-0.24
-0.08
0.15
0.43
0.67
0.76
0.66
0.38
0.02
-0.30
-0.49
-0.49
-0.34
-0.12
0.10
0.24
0.27
0.23
0.17
0.16
0.26
0.45
0.67
0.87
1.00
1.09
1.15
1.16
1.10
0.93
0.64
0.33
0.09
0.04
0.19
0.49
0.80
1.00
1.00
0.81
0.53
0.26
0.10
0.07
0.16
0.28
0.36
0.32
0.16
-0.05
-0.22
-0.27
-0.18
0.05
0.34
0.63
0.86
1.03
1.18
1.34
1.51
1.64
1.63
1.36
0.83
0.10
-0.64
-1.23
-1.57
-1.71
-1.78
-1.93
-2.21
-2.52
-2.69
-2.58
-2.14
-1.51
-0.88
-0.44
-0.28
-0.34
-0.46
-0.52
-0.42
-0.22
-0.01
0.12
0.11
-0.02
-0.18
-0.33
-0.42
-0.43
-0.35
-0.21
-0.02
0.19
0.34
0.39
0.29
0.05
-0.27
-0.60
-0.87
-1.05
-1.09
-1.00
-0.76
-0.42
-0.05
0.26
0.44
0.47
0.39
0.24
0.07
-0.10
-0.25
-0.39
-0.50
-0.55
-0.54
-0.47
-0.35
-0.22
-0.13
-0.10
-0.13
-0.22
-0.31
-0.37
-0.37
-0.33
-0.28
-0.23
-0.18
-0.09
0.06
0.26
0.42
0.44
0.24
-0.15
-0.58
-0.88
-0.93
-0.74
-0.43
-0.19
-0.15
-0.28
-0.46
-0.49
-0.27
0.19
0.70
1.07
1.16
0.94
0.53
0.10
-0.21
-0.31
-0.21
0.03
0.29
0.48
0.52
0.38
0.10
-0.26
-0.59
-0.79
-0.82
-0.69
-0.51
-0.36
-0.30
-0.35
-0.44
-0.49
-0.43
-0.26
-0.02
0.23
0.43
0.58
0.71
0.83
0.88
0.82
0.59
0.22
-0.18
-0.45
-0.49
-0.28
0.06
0.40
0.58
0.57
0.41
0.19
-0.02
-0.18
-0.29
-0.37
-0.41
-0.37
-0.24
-0.03
0.20
0.36
0.41
0.35
0.23
0.16
0.18
0.30
0.48
0.61
0.61
0.49
0.30
0.15
0.10
0.18
0.29
0.31
0.20
-0.03
-0.26
-0.35
-0.27
-0.09
0.03
-0.04
-0.32
-0.71
-1.04
-1.17
-1.03
-0.67
-0.21
0.26
0.66
0.94
1.09
1.05
0.80
0.39
-0.08
-0.42
-0.50
-0.28
0.13
0.56
0.81
0.82
0.60
0.29
0.01
-0.16
-0.24
-0.25
-0.22
-0.16
-0.04
0.14
0.33
0.49
0.55
0.48
0.33
0.13
-0.06
-0.24
-0.43
-0.62
-0.78
-0.83
-0.73
-0.45
-0.07
0.29
0.53
0.57
0.43
0.18
-0.08
-0.30
-0.46
-0.58
-0.71
-0.81
-0.85
-0.75
-0.44
0.05
0.59
1.01
1.14
0.94
0.50
0.03
-0.29
-0.38
-0.28
-0.09
0.09
0.26
0.42
0.56
0.61
0.46
0.05
-0.55
-1.17
-1.59
-1.69
-1.48
-1.10
-0.71
-0.43
-0.28
-0.23
-0.20
-0.17
-0.11
-0.04
0.07
0.23
0.43
0.66
0.84
0.93
0.88
0.72
0.51
0.36
0.31
0.39
0.53
0.66
0.67
0.56
0.35
0.13
0.01
0.01
0.12
0.25
0.29
0.20
-0.00
-0.23
-0.41
-0.48
-0.44
-0.30
-0.09
0.16
0.44
0.69
0.85
0.84
0.64
0.29
-0.14
-0.53
-0.81
-0.92
-0.87
-0.67
-0.39
-0.09
0.15
0.28
0.24
0.07
-0.16
-0.34
-0.38
-0.24
0.05
0.37
0.63
0.73
0.65
0.42
0.12
-0.16
-0.36
-0.43
-0.36
-0.17
0.09
0.35
0.53
0.57
0.45
0.18
-0.18
-0.54
-0.85
-1.06
-1.16
-1.14
-1.03
-0.84
-0.60
-0.35
-0.12
0.05
0.14
0.16
0.15
0.11
0.07
0.01
-0.06
-0.15
-0.22
-0.25
-0.20
-0.09
0.05
0.18
0.24
0.23
0.17
0.08
-0.02
-0.15
-0.33
-0.57
-0.81
-0.95
-0.89
-0.59
-0.12
0.34
0.58
0.52
0.22
-0.15
-0.40
-0.41
-0.22
0.03
0.21
0.27
0.25
0.23
0.26
0.34
0.43
0.50
0.56
0.64
0.75
0.86
0.87
0.68
0.30
-0.18
-0.57
-0.73
-0.57
-0.17
0.31
0.69
0.86
0.79
0.57
0.32
0.10
-0.06
-0.20
-0.36
-0.55
-0.71
-0.77
-0.65
-0.37
0.01
0.35
0.54
0.52
0.33
0.06
-0.19
-0.35
-0.39
-0.34
-0.20
-0.02
0.17
0.35
0.50
0.61
0.68
0.72
0.75
0.75
0.70
0.61
0.50
0.42
0.40
0.44
0.51
0.52
0.41
0.17
-0.13
-0.36
-0.43
-0.29
0.01
0.35
0.61
0.72
0.65
0.44
0.11
-0.28
-0.67
-0.99
-1.17
-1.20
-1.10
-0.92
-0.75
-0.59
-0.45
-0.30
-0.16
-0.07
-0.11
-0.29
-0.56
-0.81
-0.92
-0.81
-0.52
-0.15
0.19
0.41
0.47
0.40
0.26
0.11
0.01
-0.01
0.07
0.21
0.40
0.59
0.78
0.97
1.15
1.28
1.31
1.19
0.89
0.49
0.08
-0.21
-0.30
-0.22
-0.04
0.14
0.24
0.24
0.17
0.06
-0.06
-0.14
-0.21
-0.26
-0.33
-0.43
-0.58
-0.71
-0.75
-0.65
-0.38
-0.04
0.30
0.54
0.65
0.66
0.59
0.48
0.31
0.10
-0.10
-0.22
-0.21
-0.09
0.08
0.19
0.21
0.19
0.23
0.41
0.68
0.93
1.00
0.83
0.48
0.08
-0.18
-0.25
-0.14
0.04
0.17
0.18
0.11
0.02
-0.01
0.01
0.05
0.04
-0.07
-0.28
-0.55
-0.79
-0.91
-0.85
-0.60
-0.21
0.19
0.50
0.68
0.73
0.72
0.72
0.75
0.77
0.72
0.57
0.35
0.11
-0.08
-0.20
-0.28
-0.39
-0.58
-0.85
-1.17
-1.47
-1.65
-1.63
-1.40
-1.01
-0.61
-0.34
-0.31
-0.51
-0.80
-1.01
-1.02
-0.81
-0.47
-0.16
0.00
-0.00
-0.11
-0.23
-0.26
-0.14
0.09
0.34
0.54
0.62
0.59
0.48
0.35
0.27
0.23
0.24
0.28
0.35
0.47
0.61
0.74
0.78
0.72
0.58
0.41
0.27
0.18
0.08
-0.08
-0.33
-0.64
-0.91
-1.06
-1.00
-0.77
-0.39
0.02
0.39
0.64
0.74
0.68
0.54
0.41
0.39
0.51
0.74
0.95
1.04
0.98
0.86
0.82
0.96
1.27
1.62
1.83
1.82
1.61
1.37
1.25
1.36
1.70
2.16
2.64
3.06
3.40
3.71
4.01
4.34
4.66
4.97
5.20
5.33
5.35
5.26
5.10
4.90
4.72
4.57
4.45
4.37
4.30
4.25
4.23
4.27
4.43
4.70
5.02
5.29
5.36
5.13
4.57
3.77
2.91
2.14
1.58
1.25
1.07
0.91
0.62
0.08
-0.78
-1.99
-3.45
-4.97
-6.34
-7.34
-7.90
-8.10
-8.12
-8.16
-8.29
-8.45
-8.52
-8.35
-7.92
-7.31
-6.62
-5.95
-5.34
-4.81
-4.40
-4.14
-4.08
-4.20
-4.39
-4.51
-4.47
-4.29
-4.06
-3.92
-3.89
-3.93
-3.91
-3.72
-3.37
-2.93
-2.50
-2.13
-1.78
-1.38
-0.90
-0.41
-0.04
0.12
0.05
-0.11
-0.19
-0.08
0.19
0.50
0.65
0.57
0.29
-0.03
-0.26
-0.30
-0.19
0.00
0.19
0.33
0.42
0.46
0.46
0.41
0.34
0.27
0.22
0.18
0.14
0.05
-0.05
-0.11
-0.08
0.07
0.28
0.45
0.50
0.42
0.28
0.21
0.32
0.60
0.96
1.25
1.35
1.21
0.92
0.60
0.35
0.21
0.16
0.14
0.10
0.05
0.00
-0.03
-0.08
-0.16
-0.25
-0.29
-0.22
-0.00
0.30
0.53
0.59
0.46
0.22
0.05
0.05
0.24
0.50
0.66
0.60
0.34
-0.02
-0.33
-0.49
-0.51
-0.41
-0.25
-0.07
0.12
0.32
0.50
0.60
0.58
0.40
0.09
-0.30
-0.67
-0.93
-1.06
-1.04
-0.93
-0.80
-0.68
-0.56
-0.41
-0.18
0.14
0.47
0.72
0.79
0.65
0.33
-0.03
-0.32
-0.48
-0.48
-0.41
-0.34
-0.31
-0.34
-0.40
-0.45
-0.45
-0.38
-0.22
0.03
0.37
0.73
1.02
1.16
1.10
0.86
0.52
0.19
-0.08
-0.25
-0.33
-0.34
-0.28
-0.12
0.13
0.44
0.70
0.80
0.67
0.33
-0.13
-0.56
-0.81
-0.80
-0.56
-0.17
0.23
0.54
0.67
0.64
0.48
0.28
0.11
0.01
0.00
0.04
0.08
0.05
-0.07
-0.26
-0.45
-0.57
-0.57
-0.49
-0.40
-0.39
-0.49
-0.66
-0.79
-0.80
-0.68
-0.48
-0.32
-0.26
-0.30
-0.34
-0.27
-0.08
0.19
0.41
0.48
0.37
0.14
-0.09
-0.24
-0.28
-0.23
-0.16
-0.13
-0.17
-0.26
-0.36
-0.39
-0.30
-0.08
0.23
0.54
0.76
0.85
0.79
0.60
0.34
0.05
-0.21
-0.40
-0.49
-0.49
-0.41
-0.33
-0.28
-0.27
-0.28
-0.27
-0.22
-0.15
-0.08
-0.01
0.07
0.23
0.46
0.72
0.92
0.97
0.83
0.54
0.26
0.11
0.18
0.43
0.70
0.83
0.71
0.36
-0.08
-0.46
-0.66
-0.67
-0.60
-0.53
-0.51
-0.50
-0.44
-0.30
-0.15
-0.04
-0.04
-0.13
-0.25
-0.30
-0.25
-0.13
-0.02
-0.00
-0.09
-0.21
-0.25
-0.14
0.13
0.48
0.78
0.89
0.78
0.52
0.23
0.04
0.00
0.09
0.19
0.21
0.14
-0.00
-0.13
-0.19
-0.22
-0.28
-0.41
-0.60
-0.77
-0.82
-0.71
-0.46
-0.18
0.02
0.08
0.01
-0.14
-0.28
-0.34
-0.31
-0.19
-0.03
0.13
0.21
0.20
0.12
0.03
0.01
0.11
0.28
0.43
0.51
0.51
0.48
0.49
0.57
0.66
0.67
0.52
0.24
-0.08
-0.30
-0.30
-0.07
0.29
0.65
0.89
0.96
0.88
0.70
0.48
0.25
0.06
-0.07
-0.12
-0.12
-0.11
-0.14
-0.26
-0.43
-0.61
-0.72
-0.69
-0.54
-0.33
-0.16
-0.09
-0.13
-0.21
-0.25
-0.21
-0.10
0.04
0.11
0.08
-0.06
-0.25
-0.41
-0.45
-0.34
-0.07
0.26
0.57
0.78
0.81
0.68
0.41
0.08
-0.24
-0.46
-0.53
-0.45
-0.24
0.02
0.25
0.45
0.59
0.72
0.81
0.85
0.80
0.64
0.41
0.18
0.03
-0.05
-0.06
-0.06
-0.05
-0.05
-0.02
0.04
0.11
0.13
0.08
-0.04
-0.18
-0.28
-0.31
-0.27
-0.23
-0.24
-0.36
-0.53
-0.70
-0.77
-0.72
-0.60
-0.48
-0.42
-0.40
-0.32
-0.13
0.20
0.56
0.82
0.83
0.60
0.22
-0.14
-0.35
-0.35
-0.19
0.04
0.24
0.37
0.42
0.43
0.43
0.47
0.53
0.60
0.63
0.59
0.51
0.43
0.42
0.48
0.56
0.56
0.38
0.02
-0.43
-0.83
-1.03
-0.99
-0.77
-0.47
-0.19
0.00
0.09
0.08
-0.03
-0.23
-0.45
-0.64
-0.71
-0.64
-0.48
-0.31
-0.22
-0.22
-0.24
-0.19
0.00
0.32
0.67
0.95
1.07
1.00
0.78
0.49
0.23
0.06
0.02
0.08
0.16
0.17
0.08
-0.11
-0.33
-0.48
-0.51
-0.42
-0.29
-0.20
-0.19
-0.23
-0.26
-0.23
-0.15
-0.09
-0.10
-0.22
-0.42
-0.65
-0.85
-0.99
-1.02
-0.90
-0.59
-0.10
0.48
0.97
1.23
1.17
0.86
0.48
0.21
0.15
0.26
0.40
0.43
0.29
0.01
-0.27
-0.45
-0.47
-0.34
-0.12
0.12
0.30
0.39
0.38
0.30
0.19
0.10
0.03
-0.02
-0.07
-0.12
-0.19
-0.26
-0.31
-0.36
-0.43
-0.51
-0.61
-0.75
-0.91
-1.09
-1.27
-1.40
-1.39
-1.21
-0.85
-0.44
-0.10
0.05
-0.02
-0.20
-0.36
-0.38
-0.28
-0.14
-0.09
-0.17
-0.32
-0.41
-0.35
-0.15
0.06
0.15
0.08
-0.11
-0.28
-0.32
-0.18
0.08
0.37
0.60
0.73
0.78
0.78
0.77
0.78
0.82
0.87
0.90
0.90
0.86
0.78
0.70
0.64
0.63
0.67
0.72
0.76
0.75
0.68
0.55
0.37
0.21
0.13
0.18
0.33
0.51
0.62
0.58
0.35
0.03
-0.27
-0.45
-0.42
-0.23
0.03
0.23
0.26
0.06
-0.33
-0.76
-1.07
-1.10
-0.86
-0.47
-0.16
-0.08
-0.24
-0.47
-0.55
-0.36
0.05
0.49
0.73
0.66
0.35
0.01
-0.20
-0.20
-0.07
0.04
0.03
-0.09
-0.23
-0.26
-0.13
0.14
0.46
0.73
0.87
0.85
0.71
0.51
0.32
0.19
0.13
0.10
0.05
-0.02
-0.11
-0.19
-0.26
-0.34
-0.47
-0.65
-0.84
-0.97
-0.95
-0.77
-0.49
-0.19
0.05
0.20
0.27
0.28
0.25
0.19
0.12
0.10
0.14
0.27
0.43
0.56
0.62
0.59
0.50
0.43
0.41
0.44
0.50
0.53
0.47
0.28
-0.02
-0.39
-0.70
-0.84
-0.73
-0.40
-0.02
0.24
0.20
-0.16
-0.71
-1.23
-1.52
-1.49
-1.19
-0.77
-0.38
-0.10
0.05
0.09
0.06
-0.01
-0.08
-0.09
0.03
0.28
0.64
0.99
1.22
1.25
1.11
0.84
0.50
0.14
-0.23
-0.52
-0.67
-0.58
-0.27
0.15
0.47
0.54
0.33
0.01
-0.20
-0.08
0.36
0.95
1.41
1.51
1.20
0.59
-0.09
-0.62
-0.87
-0.83
-0.60
-0.29
0.00
0.22
0.32
0.31
0.21
0.07
-0.06
-0.13
-0.12
-0.04
0.07
0.17
0.26
0.33
0.38
0.38
0.32
0.15
-0.11
-0.43
-0.76
-1.03
-1.20
-1.27
-1.26
-1.18
-1.01
-0.75
-0.39
0.00
0.35
0.56
0.59
0.50
0.36
0.27
0.29
0.41
0.58
0.72
0.79
0.79
0.74
0.64
0.50
0.29
0.05
-0.17
-0.27
-0.21
-0.00
0.27
0.50
0.58
0.49
0.29
0.07
-0.06
-0.08
0.00
0.12
0.19
0.18
0.10
-0.03
-0.16
-0.28
-0.39
-0.47
-0.51
-0.49
-0.41
-0.28
-0.13
-0.03
0.03
0.05
0.08
0.15
0.24
0.32
0.34
0.28
0.15
-0.02
-0.23
-0.50
-0.84
-1.23
-1.58
-1.76
-1.69
-1.36
-0.86
-0.35
0.02
0.21
0.26
0.27
0.31
0.40
0.52
0.60
0.63
0.65
0.70
0.76
0.78
0.70
0.49
0.20
-0.07
-0.24
-0.29
-0.28
-0.26
-0.24
-0.19
-0.05
0.24
0.62
0.98
1.19
1.17
0.90
0.50
0.09
-0.20
-0.33
-0.31
-0.25
-0.22
-0.25
-0.28
-0.23
-0.05
0.23
0.51
0.70
0.74
0.68
0.54
0.37
0.15
-0.13
-0.42
-0.60
-0.54
-0.18
0.34
0.78
0.87
0.46
-0.36
-1.35
-2.19
-2.63
-2.58
-2.12
-1.39
-0.59
0.14
0.67
0.94
0.92
0.67
0.31
-0.03
-0.23
-0.27
-0.17
-0.02
0.15
0.31
0.48
0.68
0.86
0.96
0.91
0.69
0.35
-0.00
-0.26
-0.38
-0.37
-0.28
-0.19
-0.15
-0.18
-0.28
-0.44
-0.63
-0.80
-0.93
-1.01
-1.04
-1.04
-1.00
-0.89
-0.68
-0.36
-0.01
0.29
0.45
0.43
0.32
0.22
0.22
0.37
0.62
0.88
1.07
1.17
1.21
1.20
1.13
0.98
0.71
0.35
-0.03
-0.30
-0.35
-0.19
0.11
0.35
0.40
0.21
-0.13
-0.46
-0.60
-0.51
-0.27
-0.01
0.14
0.16
0.12
0.15
0.29
0.53
0.73
0.77
0.59
0.24
-0.14
-0.37
-0.39
-0.20
0.08
0.28
0.28
0.06
-0.30
-0.65
-0.89
-0.93
-0.80
-0.59
-0.38
-0.25
-0.19
-0.18
-0.18
-0.15
-0.08
0.03
0.13
0.19
0.18
0.09
-0.05
-0.21
-0.32
-0.35
-0.29
-0.17
-0.01
0.14
0.22
0.22
0.11
-0.09
-0.31
-0.46
-0.47
-0.32
-0.04
0.28
0.54
0.68
0.72
0.70
0.68
0.70
0.75
0.80
0.78
0.70
0.59
0.48
0.42
0.43
0.48
0.53
0.54
0.49
0.35
0.13
-0.13
-0.36
-0.48
-0.43
-0.21
0.10
0.39
0.56
0.55
0.42
0.24
0.08
-0.04
-0.15
-0.29
-0.45
-0.59
-0.62
-0.52
-0.31
-0.11
-0.02
-0.12
-0.37
-0.68
-0.94
-1.04
-0.99
-0.86
-0.75
-0.76
-0.90
-1.10
-1.24
-1.18
-0.91
-0.48
-0.04
0.26
0.34
0.27
0.16
0.16
0.28
0.42
0.43
0.20
-0.24
-0.72
-1.02
-0.99
-0.68
-0.26
0.03
0.05
-0.17
-0.46
-0.65
-0.62
-0.38
-0.04
0.29
0.53
0.66
0.68
0.65
0.59
0.53
0.48
0.46
0.49
0.54
0.60
0.64
0.62
0.55
0.44
0.29
0.12
-0.09
-0.30
-0.51
-0.64
-0.65
-0.47
-0.12
0.34
0.79
1.09
1.15
0.97
0.62
0.24
-0.04
-0.17
-0.15
-0.07
0.03
0.11
0.19
0.26
0.31
0.28
0.11
-0.15
-0.38
-0.42
-0.18
0.33
0.92
1.33
1.39
1.10
0.58
0.10
-0.19
-0.24
-0.12
-0.02
-0.05
-0.24
-0.49
-0.66
-0.64
-0.42
-0.06
0.29
0.50
0.52
0.40
0.24
0.15
0.14
0.19
0.22
0.15
-0.02
-0.25
-0.49
-0.70
-0.87
-1.02
-1.13
-1.22
-1.24
-1.18
-1.02
-0.78
-0.53
-0.31
-0.18
-0.15
-0.21
-0.30
-0.37
-0.37
-0.27
-0.12
0.06
0.21
0.28
0.27
0.19
0.10
0.07
0.18
0.45
0.83
1.22
1.49
1.53
1.33
0.94
0.48
0.09
-0.17
-0.27
-0.24
-0.11
0.08
0.31
0.53
0.70
0.77
0.76
0.67
0.56
0.42
0.27
0.09
-0.09
-0.20
-0.19
-0.06
0.13
0.27
0.31
0.22
0.05
-0.12
-0.23
-0.25
-0.18
-0.02
0.20
0.41
0.48
0.30
-0.16
-0.81
-1.42
-1.75
-1.71
-1.36
-0.91
-0.58
-0.45
-0.49
-0.53
-0.48
-0.32
-0.15
-0.07
-0.10
-0.17
-0.18
-0.05
0.20
0.47
0.64
0.65
0.52
0.32
0.14
0.01
-0.07
-0.09
-0.09
-0.06
0.01
0.09
0.15
0.11
-0.06
-0.36
-0.68
-0.90
-0.91
-0.71
-0.38
-0.09
0.02
-0.10
-0.39
-0.72
-0.96
-1.03
-0.94
-0.76
-0.53
-0.32
-0.15
-0.03
0.04
0.09
0.17
0.33
0.58
0.89
1.17
1.33
1.31
1.11
0.78
0.42
0.12
-0.07
-0.14
-0.12
-0.06
-0.00
0.02
-0.03
-0.14
-0.27
-0.40
-0.50
-0.55
-0.53
-0.44
-0.26
-0.01
0.27
0.54
0.72
0.78
0.70
0.55
0.37
0.21
0.10
0.03
0.03
0.11
0.29
0.54
0.76
0.84
0.69
0.34
-0.10
-0.45
-0.59
-0.49
-0.21
0.14
0.44
0.62
0.62
0.44
0.12
-0.24
-0.50
-0.54
-0.32
0.08
0.52
0.86
0.98
0.87
0.57
0.12
-0.40
-0.91
-1.31
-1.52
-1.50
-1.27
-0.94
-0.61
-0.38
-0.24
-0.17
-0.09
0.03
0.20
0.37
0.45
0.38
0.12
-0.28
-0.69
-0.95
-0.95
-0.67
-0.18
0.40
0.90
1.24
1.35
1.23
0.93
0.52
0.11
-0.19
-0.32
-0.26
-0.05
0.21
0.45
0.61
0.68
0.69
0.68
0.68
0.67
0.60
0.41
0.12
-0.19
-0.39
-0.42
-0.29
-0.10
0.01
-0.01
-0.10
-0.13
-0.02
0.25
0.58
0.86
1.03
1.10
1.16
1.27
1.42
1.51
1.46
1.20
0.77
0.28
-0.17
-0.48
-0.62
-0.61
-0.49
-0.34
-0.19
-0.09
-0.07
-0.19
-0.47
-0.87
-1.31
-1.68
-1.84
-1.73
-1.36
-0.84
-0.30
0.11
0.28
0.19
-0.12
-0.55
-0.95
-1.21
-1.24
-1.06
-0.74
-0.40
-0.11
0.08
0.18
0.22
0.23
0.24
0.25
0.32
0.43
0.60
0.73
0.74
0.56
0.23
-0.14
-0.38
-0.37
-0.12
0.22
0.48
0.51
0.31
-0.07
-0.51
-0.91
-1.18
-1.30
-1.27
-1.12
-0.90
-0.70
-0.58
-0.53
-0.48
-0.37
-0.16
0.11
0.34
0.45
0.39
0.21
0.00
-0.16
-0.25
-0.25
-0.15
0.04
0.33
0.66
0.95
1.07
0.93
0.55
0.06
-0.35
-0.51
-0.38
-0.05
0.32
0.56
0.61
0.49
0.31
0.12
-0.03
-0.17
-0.29
-0.38
-0.41
-0.35
-0.23
-0.09
0.06
0.21
0.37
0.51
0.57
0.49
0.26
-0.05
-0.33
-0.47
-0.43
-0.24
0.00
0.20
0.28
0.21
-0.00
-0.30
-0.57
-0.70
-0.62
-0.38
-0.09
0.09
0.08
-0.04
-0.14
-0.07
0.19
0.55
0.80
0.79
0.50
0.08
-0.29
-0.46
-0.40
-0.19
0.05
0.21
0.24
0.14
-0.06
-0.28
-0.47
-0.57
-0.52
-0.30
0.04
0.39
0.66
0.77
0.71
0.54
0.35
0.20
0.08
-0.01
-0.09
-0.16
-0.22
-0.25
-0.26
-0.27
-0.31
-0.37
-0.42
-0.37
-0.19
0.13
0.50
0.78
0.87
0.70
0.35
-0.05
-0.39
-0.56
-0.55
-0.38
-0.12
0.18
0.46
0.67
0.75
0.64
0.35
-0.07
-0.48
-0.78
-0.85
-0.66
-0.28
0.18
0.57
0.75
0.66
0.30
-0.25
-0.87
-1.47
-1.97
-2.34
-2.58
-2.71
-2.76
-2.75
-2.68
-2.57
-2.40
-2.18
-1.94
-1.76
-1.74
-1.96
-2.40
-2.95
-3.44
-3.66
-3.53
-3.05
-2.38
-1.69
-1.13
-0.77
-0.66
-0.77
-1.11
-1.64
-2.24
-2.73
-2.91
-2.67
-2.03
-1.18
-0.34
0.31
0.73
1.04
1.35
1.77
2.25
2.69
2.98
3.05
2.92
2.64
2.29
1.91
1.51
1.11
0.79
0.63
0.70
0.99
1.46
1.97
2.40
2.67
2.78
2.76
2.69
2.63
2.61
2.62
2.63
2.61
2.51
2.32
2.07
1.82
1.66
1.66
1.83
2.08
2.28
2.27
1.98
1.46
0.86
0.38
0.14
0.16
0.36
0.60
0.76
0.81
0.77
0.70
0.60
0.49
0.36
0.24
0.15
0.10
0.09
0.06
-0.02
-0.16
-0.28
-0.31
-0.24
-0.11
-0.02
-0.03
-0.12
-0.21
-0.23
-0.16
-0.05
0.00
-0.07
-0.27
-0.51
-0.71
-0.80
-0.82
-0.82
-0.89
-1.05
-1.27
-1.45
-1.48
-1.29
-0.89
-0.35
0.18
0.61
0.84
0.90
0.83
0.71
0.56
0.40
0.21
-0.01
-0.27
-0.54
-0.79
-1.01
-1.16
-1.24
-1.22
-1.08
-0.80
-0.40
0.06
0.50
0.83
1.01
1.08
1.14
1.26
1.49
1.76
2.01
2.15
2.15
2.06
1.95
1.87
1.83
1.82
1.77
1.67
1.52
1.34
1.15
0.98
0.87
0.87
1.06
1.46
2.05
2.67
3.13
3.28
3.03
2.48
1.85
1.39
1.26
1.49
1.94
2.41
2.68
2.61
2.16
1.41
0.49
-0.42
-1.16
-1.64
-1.83
-1.79
-1.65
-1.50
-1.45
-1.50
-1.63
-1.79
-1.96
-2.14
-2.32
-2.53
-2.74
-2.88
-2.88
-2.70
-2.36
-1.95
-1.58
-1.32
-1.21
-1.22
-1.29
-1.35
-1.37
-1.33
-1.21
-1.02
-0.79
-0.59
-0.47
-0.48
-0.60
-0.78
-0.92
-0.96
-0.86
-0.68
-0.53
-0.52
-0.71
-1.06
-1.46
-1.73
-1.74
-1.46
-0.96
-0.43
0.01
0.26
0.37
0.41
0.47
0.53
0.50
0.31
-0.08
-0.56
-1.00
-1.22
-1.19
-0.95
-0.62
-0.30
-0.02
0.22
0.41
0.54
0.57
0.49
0.37
0.31
0.37
0.54
0.72
0.80
0.68
0.37
-0.02
-0.37
-0.56
-0.55
-0.38
-0.15
0.05
0.14
0.12
0.02
-0.10
-0.17
-0.16
-0.09
0.01
0.12
0.20
0.25
0.26
0.27
0.29
0.31
0.31
0.25
0.13
-0.04
-0.18
-0.19
-0.03
0.26
0.58
0.79
0.82
0.68
0.46
0.23
0.02
-0.17
-0.35
-0.50
-0.54
-0.45
-0.23
0.01
0.15
0.09
-0.15
-0.47
-0.74
-0.84
-0.76
-0.57
-0.34
-0.14
0.03
0.19
0.37
0.55
0.69
0.73
0.66
0.47
0.23
0.02
-0.12
-0.19
-0.24
-0.35
-0.57
-0.85
-1.12
-1.26
-1.19
-0.94
-0.61
-0.34
-0.19
-0.18
-0.22
-0.25
-0.24
-0.22
-0.23
-0.27
-0.30
-0.29
-0.19
-0.03
0.13
0.20
0.16
0.01
-0.17
-0.32
-0.35
-0.24
-0.03
0.19
0.35
0.38
0.32
0.26
0.27
0.36
0.43
0.38
0.13
-0.24
-0.56
-0.65
-0.44
0.01
0.51
0.89
1.06
1.04
0.92
0.79
0.67
0.56
0.45
0.30
0.15
0.01
-0.12
-0.21
-0.28
-0.32
-0.35
-0.37
-0.38
-0.38
-0.35
-0.28
-0.20
-0.16
-0.19
-0.33
-0.54
-0.74
-0.82
-0.74
-0.51
-0.20
0.07
0.18
0.11
-0.11
-0.38
-0.57
-0.59
-0.44
-0.16
0.16
0.45
0.67
0.81
0.90
0.93
0.87
0.71
0.46
0.18
-0.02
-0.03
0.16
0.48
0.76
0.86
0.67
0.26
-0.24
-0.63
-0.77
-0.65
-0.39
-0.12
0.03
0.06
0.05
0.10
0.27
0.50
0.65
0.62
0.37
-0.04
-0.45
-0.72
-0.78
-0.64
-0.40
-0.15
0.02
0.08
0.06
-0.02
-0.11
-0.19
-0.22
-0.20
-0.10
0.07
0.30
0.54
0.75
0.89
0.93
0.90
0.86
0.81
0.75
0.63
0.42
0.15
-0.14
-0.37
-0.50
-0.54
-0.54
-0.52
-0.53
-0.51
-0.44
-0.33
-0.24
-0.25
-0.41
-0.68
-0.94
-1.05
-0.90
-0.51
0.00
0.45
0.67
0.61
0.33
-0.05
-0.43
-0.72
-0.88
-0.91
-0.80
-0.57
-0.25
0.10
0.43
0.69
0.89
1.00
1.05
1.01
0.84
0.56
0.19
-0.18
-0.49
-0.68
-0.77
-0.80
-0.85
-0.95
-1.10
-1.26
-1.33
-1.24
-0.95
-0.49
0.02
0.45
0.67
0.63
0.37
-0.00
-0.37
-0.62
-0.67
-0.51
-0.14
0.37
0.89
1.26
1.33
1.07
0.51
-0.16
-0.72
-1.00
-0.96
-0.67
-0.32
-0.04
0.06
0.02
-0.07
-0.11
-0.05
0.10
0.30
0.45
0.53
0.53
0.46
0.37
0.29
0.21
0.13
0.06
-0.00
-0.04
-0.06
-0.09
-0.16
-0.29
-0.44
-0.55
-0.54
-0.41
-0.19
0.01
0.09
-0.00
-0.22
-0.48
-0.65
-0.67
-0.55
-0.34
-0.11
0.07
0.21
0.31
0.41
0.51
0.60
0.66
0.65
0.57
0.47
0.41
0.45
0.60
0.82
0.99
1.05
0.95
0.74
0.51
0.35
0.31
0.34
0.36
0.28
0.11
-0.13
-0.36
-0.52
-0.60
-0.62
-0.61
-0.56
-0.45
-0.23
0.09
0.44
0.69
0.74
0.55
0.16
-0.28
-0.62
-0.76
-0.68
-0.44
-0.14
0.12
0.25
0.25
0.17
0.06
0.02
0.03
0.08
0.08
0.01
-0.14
-0.29
-0.35
-0.25
-0.01
0.30
0.56
0.70
0.69
0.56
0.38
0.22
0.13
0.14
0.26
0.48
0.73
0.93
0.98
0.83
0.49
0.05
-0.34
-0.58
-0.63
-0.57
-0.49
-0.44
-0.42
-0.36
-0.21
0.00
0.18
0.22
0.06
-0.24
-0.55
-0.71
-0.66
-0.40
-0.05
0.28
0.51
0.63
0.66
0.65
0.61
0.55
0.42
0.20
-0.16
-0.58
-1.00
-1.30
-1.39
-1.24
-0.92
-0.49
-0.05
0.35
0.66
0.87
0.98
0.93
0.74
0.42
0.06
-0.28
-0.49
-0.56
-0.48
-0.32
-0.15
-0.03
-0.01
-0.08
-0.22
-0.34
-0.37
-0.28
-0.07
0.18
0.37
0.44
0.38
0.26
0.16
0.14
0.20
0.28
0.33
0.35
0.34
0.36
0.42
0.49
0.51
0.43
0.23
-0.04
-0.31
-0.49
-0.58
-0.60
-0.56
-0.45
-0.26
0.04
0.39
0.68
0.82
0.72
0.42
0.03
-0.33
-0.56
-0.63
-0.58
-0.48
-0.38
-0.33
-0.34
-0.41
-0.49
-0.52
-0.42
-0.17
0.17
0.49
0.66
0.63
0.41
0.12
-0.12
-0.26
-0.30
-0.28
-0.27
-0.27
-0.31
-0.37
-0.43
-0.48
-0.50
-0.43
-0.23
0.04
0.31
0.47
0.45
0.24
-0.05
-0.29
-0.37
-0.26
-0.03
0.22
0.38
0.43
0.43
0.47
0.58
0.77
0.98
1.12
1.16
1.10
0.96
0.76
0.49
0.16
-0.23
-0.62
-0.95
-1.15
-1.22
-1.18
-1.09
-1.04
-1.03
-1.09
-1.17
-1.23
-1.21
-1.06
-0.81
-0.49
-0.22
-0.11
-0.24
-0.61
-1.15
-1.75
-2.23
-2.48
-2.45
-2.22
-1.92
-1.72
-1.74
-1.98
-2.38
-2.81
-3.14
-3.21
-2.89
-2.11
-0.89
0.63
2.17
3.42
4.21
4.48
4.37
4.11
3.87
3.73
3.65
3.52
3.28
2.89
2.39
1.84
1.32
0.94
0.76
0.75
0.86
0.94
0.93
0.79
0.58
0.40
0.27
0.19
0.08
-0.12
-0.41
-0.71
-0.88
-0.83
-0.56
-0.20
0.07
0.10
-0.15
-0.59
-1.05
-1.38
-1.48
-1.36
-1.12
-0.86
-0.65
-0.53
-0.50
-0.55
-0.65
-0.78
-0.87
-0.85
-0.70
-0.46
-0.25
-0.19
-0.32
-0.57
-0.80
-0.82
-0.56
-0.10
0.41
0.75
0.84
0.71
0.50
0.33
0.28
0.30
0.32
0.25
0.07
-0.18
-0.40
-0.52
-0.47
-0.26
0.06
0.36
0.51
0.43
0.12
-0.30
-0.67
-0.84
-0.73
-0.35
0.19
0.73
1.12
1.26
1.14
0.80
0.33
-0.15
-0.52
-0.73
-0.76
-0.66
-0.48
-0.27
-0.07
0.13
0.29
0.40
0.45
0.46
0.45
0.48
0.57
0.75
1.00
1.26
1.45
1.52
1.43
1.24
1.00
0.82
0.74
0.75
0.80
0.80
0.68
0.45
0.17
-0.08
-0.24
-0.29
-0.27
-0.20
-0.07
0.10
0.29
0.48
0.59
0.62
0.59
0.55
0.57
0.62
0.67
0.65
0.51
0.30
0.08
-0.05
-0.05
0.09
0.32
0.56
0.73
0.77
0.65
0.40
0.09
-0.18
-0.38
-0.51
-0.66
-0.88
-1.16
-1.41
-1.52
-1.42
-1.14
-0.79
-0.55
-0.49
-0.57
-0.67
-0.70
-0.62
-0.53
-0.53
-0.68
-0.92
-1.13
-1.15
-0.94
-0.54
-0.05
0.37
0.62
0.67
0.55
0.37
0.21
0.18
0.29
0.50
0.71
0.80
0.72
0.48
0.15
-0.17
-0.39
-0.47
-0.40
-0.23
0.01
0.23
0.39
0.43
0.36
0.22
0.08
0.02
0.06
0.15
0.19
0.08
-0.20
-0.57
-0.90
-1.04
-0.94
-0.64
-0.26
0.06
0.24
0.27
0.17
0.02
-0.11
-0.15
-0.07
0.15
0.42
0.65
0.76
0.72
0.60
0.48
0.43
0.45
0.45
0.37
0.16
-0.13
-0.40
-0.53
-0.47
-0.24
0.06
0.27
0.27
0.00
-0.46
-0.95
-1.26
-1.23
-0.86
-0.30
0.21
0.49
0.45
0.16
-0.22
-0.55
-0.74
-0.78
-0.71
-0.56
-0.36
-0.13
0.05
0.13
0.02
-0.25
-0.60
-0.87
-0.92
-0.71
-0.32
0.11
0.42
0.56
0.55
0.49
0.48
0.54
0.62
0.65
0.61
0.52
0.45
0.47
0.57
0.72
0.84
0.89
0.88
0.84
0.81
0.82
0.86
0.88
0.86
0.79
0.69
0.62
0.62
0.70
0.82
0.90
0.84
0.57
0.11
-0.47
-1.03
-1.41
-1.54
-1.40
-1.10
-0.78
-0.58
-0.55
-0.66
-0.81
-0.88
-0.80
-0.59
-0.30
-0.04
0.14
0.21
0.20
0.15
0.08
-0.00
-0.10
-0.18
-0.19
-0.10
0.11
0.38
0.62
0.73
0.67
0.46
0.20
-0.03
-0.14
-0.12
-0.02
0.11
0.22
0.29
0.31
0.32
0.32
0.31
0.29
0.25
0.20
0.17
0.16
0.18
0.22
0.25
0.24
0.17
0.06
-0.06
-0.17
-0.22
-0.20
-0.10
0.01
0.09
0.08
-0.02
-0.15
-0.25
-0.28
-0.21
-0.11
-0.01
0.08
0.18
0.31
0.44
0.47
0.33
0.00
-0.41
-0.75
-0.84
-0.64
-0.24
0.17
0.41
0.41
0.21
-0.05
-0.26
-0.39
-0.47
-0.59
-0.76
-0.97
-1.13
-1.15
-0.99
-0.65
-0.21
0.25
0.64
0.89
0.99
0.95
0.81
0.62
0.45
0.31
0.18
0.02
-0.19
-0.43
-0.60
-0.63
-0.46
-0.12
0.24
0.51
0.61
0.57
0.51
0.51
0.60
0.70
0.72
0.60
0.41
0.25
0.24
0.38
0.59
0.71
0.64
0.36
-0.07
-0.55
-1.00
-1.37
-1.64
-1.78
-1.78
-1.62
-1.33
-0.96
-0.57
-0.21
0.09
0.31
0.41
0.35
0.12
-0.26
-0.68
-1.01
-1.09
-0.84
-0.30
0.37
0.99
1.43
1.60
1.55
1.34
1.06
0.74
0.45
0.23
0.16
0.27
0.54
0.85
1.04
0.93
0.51
-0.14
-0.77
-1.17
-1.21
-0.94
-0.51
-0.14
0.04
0.01
-0.13
-0.26
-0.29
-0.24
-0.15
-0.05
0.06
0.18
0.32
0.42
0.41
0.25
-0.03
-0.33
-0.54
-0.62
-0.57
-0.48
-0.42
-0.42
-0.43
-0.39
-0.26
-0.04
0.23
0.49
0.69
0.77
0.73
0.58
0.36
0.13
-0.06
-0.20
-0.32
-0.45
-0.56
-0.64
-0.62
-0.47
-0.22
0.05
0.26
0.36
0.37
0.34
0.32
0.32
0.33
0.32
0.24
0.10
-0.10
-0.33
-0.56
-0.74
-0.79
-0.67
-0.36
0.06
0.44
0.65
0.59
0.30
-0.10
-0.43
-0.53
-0.37
-0.04
0.29
0.45
0.35
0.08
-0.19
-0.29
-0.15
0.16
0.49
0.69
0.71
0.60
0.48
0.44
0.48
0.53
0.49
0.31
0.04
-0.22
-0.38
-0.38
-0.28
-0.19
-0.19
-0.33
-0.56
-0.77
-0.86
-0.76
-0.50
-0.17
0.12
0.30
0.35
0.28
0.12
-0.11
-0.38
-0.62
-0.77
-0.80
-0.68
-0.48
-0.27
-0.07
0.09
0.26
0.42
0.54
0.56
0.46
0.26
0.06
-0.05
-0.04
0.05
0.15
0.19
0.13
0.04
-0.06
-0.11
-0.15
-0.21
-0.31
-0.43
-0.50
-0.48
-0.35
-0.15
0.01
0.02
-0.16
-0.45
-0.74
-0.85
-0.71
-0.32
0.19
0.66
0.96
1.03
0.89
0.63
0.32
0.02
-0.26
-0.45
-0.53
-0.46
-0.26
0.04
0.34
0.60
0.77
0.85
0.83
0.68
0.40
0.03
-0.31
-0.46
-0.33
0.04
0.53
0.91
1.05
0.88
0.49
-0.01
-0.51
-0.97
-1.35
-1.62
-1.69
-1.47
-0.92
-0.13
0.70
1.30
1.51
1.29
0.74
0.07
-0.53
-0.94
-1.09
-1.03
-0.81
-0.52
-0.26
-0.10
-0.06
-0.09
-0.10
-0.02
0.19
0.43
0.58
0.56
0.36
0.11
-0.08
-0.11
-0.00
0.14
0.23
0.24
0.21
0.25
0.38
0.56
0.70
0.68
0.50
0.19
-0.10
-0.28
-0.31
-0.22
-0.05
0.17
0.41
0.67
0.90
1.04
1.03
0.85
0.54
0.17
-0.16
-0.38
-0.44
-0.40
-0.31
-0.25
-0.27
-0.37
-0.52
-0.63
-0.62
-0.42
-0.07
0.34
0.67
0.80
0.68
0.36
-0.04
-0.40
-0.62
-0.69
-0.66
-0.59
-0.55
-0.58
-0.64
-0.71
-0.75
-0.74
-0.66
-0.53
-0.36
-0.17
0.01
0.12
0.13
0.04
-0.12
-0.25
-0.30
-0.23
-0.11
-0.02
-0.03
-0.13
-0.22
-0.23
-0.11
0.11
0.35
0.52
0.57
0.51
0.41
0.33
0.32
0.39
0.51
0.63
0.66
0.56
0.34
0.06
-0.15
-0.22
-0.10
0.13
0.36
0.46
0.40
0.20
-0.06
-0.27
-0.40
-0.44
-0.45
-0.45
-0.46
-0.46
-0.40
-0.26
-0.02
0.25
0.49
0.63
0.64
0.55
0.43
0.37
0.41
0.54
0.68
0.77
0.74
0.59
0.41
0.26
0.19
0.17
0.17
0.14
0.09
0.04
0.06
0.17
0.34
0.48
0.54
0.45
0.23
-0.06
-0.32
-0.52
-0.66
-0.77
-0.89
-1.01
-1.11
-1.13
-1.06
-0.90
-0.71
-0.50
-0.32
-0.15
-0.00
0.09
0.10
-0.00
-0.17
-0.33
-0.39
-0.32
-0.14
0.07
0.20
0.21
0.12
0.01
-0.03
0.02
0.11
0.17
0.11
-0.05
-0.22
-0.28
-0.15
0.14
0.49
0.73
0.78
0.67
0.50
0.39
0.40
0.48
0.54
0.50
0.38
0.24
0.15
0.13
0.12
0.06
-0.10
-0.34
-0.58
-0.72
-0.70
-0.52
-0.23
0.06
0.25
0.29
0.17
-0.03
-0.22
-0.33
-0.34
-0.29
-0.24
-0.21
-0.18
-0.10
0.06
0.29
0.49
0.58
0.52
0.34
0.13
-0.04
-0.11
-0.13
-0.15
-0.20
-0.30
-0.39
-0.43
-0.39
-0.31
-0.22
-0.18
-0.16
-0.16
-0.11
-0.01
0.15
0.30
0.42
0.51
0.57
0.66
0.79
0.89
0.90
0.76
0.49
0.17
-0.08
-0.18
-0.12
0.05
0.22
0.35
0.40
0.40
0.36
0.27
0.08
-0.21
-0.55
-0.84
-0.97
-0.88
-0.60
-0.24
0.04
0.11
-0.06
-0.39
-0.75
-1.01
-1.09
-1.01
-0.83
-0.62
-0.41
-0.20
0.04
0.30
0.55
0.73
0.77
0.65
0.40
0.06
-0.28
-0.53
-0.64
-0.57
-0.36
-0.08
0.18
0.34
0.36
0.27
0.12
-0.03
-0.15
-0.21
-0.20
-0.06
0.23
0.66
1.13
1.49
1.57
1.31
0.80
0.22
-0.20
-0.34
-0.20
0.09
0.37
0.50
0.47
0.32
0.13
-0.05
-0.22
-0.39
-0.57
-0.74
-0.84
-0.82
-0.66
-0.43
-0.22
-0.12
-0.16
-0.32
-0.53
-0.72
-0.85
-0.90
-0.89
-0.81
-0.63
-0.34
0.03
0.38
0.63
0.69
0.53
0.22
-0.12
-0.36
-0.43
-0.31
-0.05
0.26
0.52
0.70
0.79
0.79
0.71
0.53
0.27
-0.02
-0.27
-0.39
-0.30
-0.01
0.41
0.83
1.11
1.18
1.03
0.72
0.37
0.10
-0.02
0.05
0.23
0.41
0.45
0.28
-0.09
-0.54
-0.93
-1.13
-1.12
-0.96
-0.75
-0.60
-0.51
-0.47
-0.41
-0.31
-0.20
-0.10
-0.07
-0.11
-0.20
-0.28
-0.27
-0.16
0.05
0.29
0.49
0.59
0.56
0.40
0.17
-0.07
-0.26
-0.36
-0.37
-0.27
-0.09
0.11
0.28
0.39
0.40
0.34
0.25
0.17
0.17
0.31
0.58
0.92
1.22
1.35
1.22
0.86
0.34
-0.18
-0.62
-0.90
-1.04
-1.11
-1.12
-1.10
-1.05
-0.97
-0.87
-0.79
-0.75
-0.75
-0.79
-0.85
-0.89
-0.90
-0.84
-0.68
-0.43
-0.15
0.09
0.24
0.31
0.37
0.47
0.63
0.79
0.86
0.79
0.62
0.45
0.37
0.44
0.59
0.72
0.68
0.45
0.07
-0.35
-0.66
-0.77
-0.62
-0.25
0.28
0.84
1.29
1.50
1.41
1.06
0.53
-0.04
-0.56
-0.95
-1.22
-1.36
-1.35
-1.21
-0.90
-0.48
-0.02
0.41
0.73
0.90
0.91
0.79
0.57
0.33
0.08
-0.13
-0.27
-0.34
-0.35
-0.34
-0.36
-0.47
-0.67
-0.91
-1.09
-1.11
-0.91
-0.53
-0.07
0.31
0.47
0.35
0.03
-0.36
-0.64
-0.70
-0.49
-0.10
0.35
0.71
0.90
0.92
0.86
0.81
0.83
0.91
0.98
0.94
0.73
0.38
-0.04
-0.36
-0.48
-0.35
-0.00
0.41
0.71
0.77
0.54
0.07
-0.50
-0.97
-1.19
-1.07
-0.65
-0.09
0.41
0.64
0.50
0.05
-0.49
-0.86
-0.90
-0.58
-0.09
0.34
0.55
0.49
0.25
-0.01
-0.17
-0.19
-0.11
0.02
0.16
0.32
0.49
0.67
0.81
0.86
0.79
0.63
0.46
0.32
0.21
0.11
-0.02
-0.19
-0.35
-0.40
-0.29
-0.02
0.32
0.61
0.71
0.58
0.27
-0.12
-0.49
-0.73
-0.82
-0.76
-0.61
-0.43
-0.27
-0.16
-0.09
-0.04
0.02
0.10
0.16
0.17
0.08
-0.09
-0.27
-0.39
-0.39
-0.24
0.01
0.25
0.43
0.51
0.54
0.54
0.53
0.47
0.31
0.03
-0.32
-0.62
-0.77
-0.72
-0.53
-0.33
-0.21
-0.21
-0.26
-0.27
-0.18
-0.01
0.18
0.31
0.39
0.42
0.43
0.43
0.39
0.28
0.06
-0.25
-0.61
-0.97
-1.25
-1.34
-1.19
-0.82
-0.31
0.20
0.56
0.69
0.61
0.41
0.19
0.04
-0.08
-0.20
-0.39
-0.62
-0.83
-0.95
-0.96
-0.89
-0.80
-0.75
-0.73
-0.68
-0.51
-0.17
0.33
0.89
1.39
1.70
1.78
1.64
1.38
1.08
0.81
0.57
0.36
0.16
0.01
-0.07
-0.04
0.09
0.23
0.33
0.33
0.22
0.04
-0.12
-0.23
-0.27
-0.23
-0.13
0.01
0.19
0.35
0.46
0.47
0.37
0.20
0.00
-0.15
-0.25
-0.32
-0.41
-0.56
-0.76
-0.94
-1.03
-0.99
-0.81
-0.55
-0.26
0.00
0.20
0.31
0.30
0.17
-0.03
-0.21
-0.28
-0.20
-0.02
0.15
0.19
0.07
-0.16
-0.39
-0.51
-0.48
-0.33
-0.14
0.04
0.16
0.20
0.13
-0.05
-0.29
-0.49
-0.58
-0.51
-0.31
-0.06
0.13
0.23
0.28
0.33
0.43
0.58
0.69
0.69
0.55
0.30
0.07
-0.03
0.04
0.28
0.56
0.77
0.82
0.68
0.44
0.22
0.13
0.19
0.32
0.43
0.42
0.28
0.07
-0.13
-0.24
-0.24
-0.17
-0.10
-0.08
-0.13
-0.21
-0.28
-0.29
-0.24
-0.16
-0.09
-0.10
-0.18
-0.29
-0.38
-0.37
-0.26
-0.11
0.01
0.03
-0.06
-0.22
-0.34
-0.36
-0.25
-0.05
0.16
0.31
0.36
0.33
0.27
0.21
0.13
0.00
-0.16
-0.31
-0.37
-0.29
-0.06
0.21
0.36
0.28
-0.04
-0.51
-0.98
-1.32
-1.48
-1.53
-1.55
-1.59
-1.69
-1.78
-1.85
-1.91
-2.00
-2.13
-2.27
-2.36
-2.32
-2.15
-1.93
-1.81
-1.88
-2.08
-2.25
-2.17
-1.70
-0.88
0.14
1.15
1.99
2.60
3.00
3.20
3.24
3.08
2.77
2.34
1.89
1.51
1.25
1.15
1.21
1.41
1.69
1.94
2.01
1.82
1.36
0.73
0.13
-0.30
-0.51
-0.56
-0.57
-0.65
-0.84
-1.06
-1.20
-1.15
-0.83
-0.29
0.40
1.12
1.73
2.14
2.26
2.11
1.71
1.15
0.51
-0.10
-0.60
-0.92
-1.00
-0.82
-0.40
0.16
0.75
1.22
1.48
1.47
1.23
0.82
0.38
0.02
-0.15
-0.12
0.06
0.27
0.40
0.43
0.42
0.48
0.71
1.10
1.55
1.88
1.96
1.75
1.32
0.81
0.33
-0.03
-0.23
-0.28
-0.22
-0.12
-0.04
-0.04
-0.13
-0.23
-0.30
-0.29
-0.24
-0.21
-0.26
-0.36
-0.43
-0.39
-0.23
-0.03
0.08
0.01
-0.24
-0.57
-0.83
-0.92
-0.86
-0.73
-0.63
-0.60
-0.57
-0.49
-0.33
-0.15
-0.07
-0.17
-0.43
-0.75
-0.99
-1.09
-1.05
-0.96
-0.90
-0.88
-0.83
-0.69
-0.42
-0.09
0.19
0.33
0.31
0.17
-0.01
-0.19
-0.35
-0.51
-0.66
-0.79
-0.86
-0.84
-0.70
-0.50
-0.28
-0.08
0.05
0.09
0.06
-0.00
-0.04
-0.01
0.13
0.36
0.64
0.90
1.08
1.09
0.96
0.71
0.46
0.29
0.24
0.26
0.29
0.25
0.11
-0.06
-0.16
-0.09
0.16
0.50
0.78
0.86
0.68
0.33
-0.05
-0.33
-0.47
-0.49
-0.49
-0.50
-0.48
-0.37
-0.14
0.15
0.37
0.40
0.20
-0.11
-0.37
-0.49
-0.44
-0.32
-0.24
-0.25
-0.25
-0.16
0.07
0.37
0.58
0.55
0.23
-0.30
-0.87
-1.26
-1.36
-1.14
-0.70
-0.17
0.27
0.52
0.55
0.42
0.25
0.14
0.14
0.23
0.38
0.52
0.66
0.78
0.89
0.96
0.93
0.76
0.43
0.01
-0.40
-0.68
-0.77
-0.69
-0.48
-0.25
-0.06
0.05
0.11
0.14
0.17
0.19
0.17
0.06
-0.14
-0.38
-0.57
-0.63
-0.50
-0.20
0.18
0.50
0.67
0.65
0.48
0.25
0.08
0.02
0.09
0.22
0.30
0.27
0.12
-0.12
-0.33
-0.44
-0.38
-0.20
0.03
0.22
0.27
0.18
-0.04
-0.30
-0.51
-0.63
-0.64
-0.58
-0.51
-0.45
-0.40
-0.34
-0.21
-0.01
0.22
0.41
0.51
0.52
0.48
0.45
0.47
0.54
0.62
0.65
0.58
0.43
0.22
0.02
-0.13
-0.19
-0.18
-0.14
-0.09
-0.05
-0.02
0.02
0.06
0.09
0.08
0.01
-0.10
-0.20
-0.26
-0.22
-0.10
0.07
0.22
0.31
0.31
0.25
0.14
0.02
-0.09
-0.18
-0.25
-0.26
-0.21
-0.08
0.12
0.34
0.50
0.52
0.34
0.02
-0.34
-0.57
-0.57
-0.31
0.08
0.42
0.52
0.30
-0.19
-0.76
-1.20
-1.37
-1.27
-1.04
-0.84
-0.76
-0.76
-0.72
-0.53
-0.18
0.23
0.54
0.64
0.53
0.32
0.19
0.24
0.49
0.86
1.19
1.39
1.40
1.26
1.05
0.87
0.74
0.67
0.62
0.55
0.46
0.37
0.31
0.29
0.30
0.30
0.25
0.13
-0.04
-0.23
-0.43
-0.66
-0.94
-1.28
-1.66
-2.00
-2.21
-2.23
-2.03
-1.67
-1.26
-0.89
-0.59
-0.36
-0.18
-0.02
0.12
0.23
0.32
0.39
0.43
0.44
0.44
0.44
0.47
0.58
0.81
1.10
1.38
1.48
1.32
0.92
0.42
0.04
-0.06
0.15
0.57
1.00
1.27
1.30
1.12
0.80
0.46
0.15
-0.10
-0.26
-0.36
-0.40
-0.44
-0.53
-0.72
-0.99
-1.27
-1.48
-1.54
-1.44
-1.22
-0.94
-0.65
-0.38
-0.11
0.16
0.43
0.65
0.78
0.79
0.70
0.57
0.47
0.44
0.47
0.49
0.45
0.30
0.09
-0.12
-0.25
-0.24
-0.13
0.05
0.22
0.34
0.41
0.43
0.43
0.41
0.37
0.34
0.33
0.40
0.56
0.77
0.98
1.10
1.05
0.86
0.59
0.34
0.21
0.23
0.37
0.57
0.72
0.77
0.68
0.45
0.11
-0.29
-0.69
-0.98
-1.09
-0.98
-0.66
-0.22
0.20
0.44
0.41
0.14
-0.31
-0.79
-1.17
-1.36
-1.34
-1.15
-0.85
-0.55
-0.32
-0.18
-0.13
-0.09
-0.00
0.19
0.46
0.73
0.90
0.86
0.60
0.20
-0.19
-0.44
-0.46
-0.27
0.03
0.27
0.33
0.17
-0.16
-0.51
-0.76
-0.83
-0.75
-0.59
-0.46
-0.40
-0.39
-0.39
-0.37
-0.32
-0.28
-0.25
-0.27
-0.33
-0.40
-0.43
-0.41
-0.32
-0.19
-0.05
0.05
0.11
0.17
0.28
0.46
0.63
0.70
0.59
0.28
-0.10
-0.41
-0.54
-0.49
-0.33
-0.19
-0.10
-0.05
0.01
0.13
0.28
0.42
0.51
0.55
0.53
0.47
0.35
0.18
-0.02
-0.20
-0.31
-0.28
-0.14
0.07
0.27
0.36
0.32
0.15
-0.09
-0.35
-0.53
-0.61
-0.56
-0.41
-0.21
-0.02
0.13
0.20
0.20
0.16
0.08
0.02
0.00
0.07
0.18
0.26
0.23
0.01
-0.35
-0.73
-0.97
-0.98
-0.79
-0.52
-0.30
-0.18
-0.09
0.05
0.28
0.53
0.67
0.62
0.39
0.13
-0.02
0.05
0.32
0.64
0.88
0.95
0.83
0.58
0.24
-0.10
-0.39
-0.56
-0.58
-0.44
-0.22
-0.04
0.05
0.03
-0.08
-0.19
-0.24
-0.21
-0.14
-0.06
-0.03
-0.06
-0.13
-0.21
-0.25
-0.23
-0.13
0.03
0.17
0.24
0.20
0.08
-0.03
-0.06
0.03
0.21
0.40
0.50
0.49
0.43
0.40
0.45
0.57
0.66
0.62
0.41
0.03
-0.39
-0.73
-0.87
-0.80
-0.53
-0.17
0.20
0.48
0.59
0.50
0.23
-0.15
-0.56
-0.89
-1.07
-1.07
-0.91
-0.62
-0.27
0.04
0.26
0.33
0.28
0.14
0.01
-0.06
-0.04
0.03
0.08
0.08
0.04
-0.01
0.01
0.10
0.25
0.36
0.36
0.18
-0.15
-0.57
-0.94
-1.19
-1.27
-1.20
-1.05
-0.87
-0.72
-0.60
-0.48
-0.36
-0.23
-0.10
0.04
0.16
0.25
0.28
0.24
0.13
-0.00
-0.09
-0.07
0.05
0.21
0.35
0.39
0.35
0.26
0.21
0.24
0.37
0.57
0.77
0.92
0.97
0.91
0.72
0.40
0.03
-0.32
-0.55
-0.57
-0.37
-0.02
0.36
0.64
0.73
0.65
0.45
0.23
0.08
0.03
0.07
0.16
0.25
0.33
0.41
0.49
0.54
0.51
0.37
0.14
-0.10
-0.27
-0.33
-0.30
-0.28
-0.36
-0.56
-0.82
-0.99
-0.99
-0.78
-0.48
-0.23
-0.17
-0.28
-0.46
-0.53
-0.37
0.02
0.49
0.82
0.89
0.69
0.36
0.13
0.12
0.34
0.68
0.95
1.05
0.96
0.74
0.47
0.23
0.01
-0.19
-0.37
-0.55
-0.72
-0.88
-0.99
-1.02
-0.94
-0.75
-0.49
-0.23
-0.04
0.06
0.08
0.09
0.12
0.19
0.29
0.40
0.51
0.62
0.73
0.88
1.04
1.17
1.22
1.13
0.88
0.52
0.15
-0.12
-0.19
-0.05
0.21
0.50
0.74
0.89
1.01
1.10
1.15
1.10
0.92
0.63
0.30
0.05
-0.03
0.07
0.27
0.43
0.47
0.32
0.03
-0.36
-0.75
-1.06
-1.20
-1.13
-0.85
-0.44
-0.06
0.17
0.15
-0.13
-0.58
-1.04
-1.41
-1.59
-1.58
-1.43
-1.19
-0.91
-0.62
-0.37
-0.21
-0.17
-0.26
-0.43
-0.61
-0.70
-0.64
-0.43
-0.12
0.19
0.40
0.45
0.32
0.06
-0.26
-0.58
-0.82
-0.97
-1.02
-0.99
-0.87
-0.68
-0.44
-0.17
0.07
0.21
0.22
0.11
-0.05
-0.18
-0.23
-0.18
-0.07
0.03
0.12
0.20
0.31
0.46
0.63
0.73
0.73
0.62
0.43
0.24
0.10
0.02
-0.01
-0.02
-0.02
-0.01
0.04
0.11
0.19
0.24
0.22
0.17
0.13
0.14
0.23
0.37
0.51
0.57
0.51
0.34
0.10
-0.16
-0.37
-0.48
-0.46
-0.29
-0.00
0.33
0.59
0.68
0.54
0.19
-0.24
-0.64
-0.90
-1.02
-1.05
-1.06
-1.08
-1.08
-0.97
-0.69
-0.25
0.27
0.74
1.04
1.15
1.09
0.95
0.80
0.65
0.48
0.27
0.06
-0.09
-0.09
0.08
0.36
0.60
0.67
0.53
0.26
0.02
-0.09
-0.07
-0.02
-0.09
-0.35
-0.71
-1.01
-1.05
-0.77
-0.25
0.30
0.69
0.84
0.77
0.61
0.49
0.48
0.53
0.58
0.52
0.34
0.08
-0.15
-0.27
-0.24
-0.12
-0.02
-0.01
-0.12
-0.31
-0.51
-0.65
-0.68
-0.58
-0.39
-0.14
0.08
0.22
0.19
-0.04
-0.42
-0.82
-1.07
-1.04
-0.69
-0.13
0.48
0.91
1.07
0.91
0.52
0.04
-0.39
-0.69
-0.84
-0.83
-0.70
-0.49
-0.23
0.01
0.17
0.19
0.08
-0.12
-0.33
-0.46
-0.49
-0.40
-0.24
-0.03
0.18
0.40
0.60
0.77
0.86
0.84
0.69
0.46
0.20
0.02
-0.02
0.07
0.25
0.41
0.46
0.39
0.23
0.07
-0.04
-0.06
-0.01
0.07
0.10
0.04
-0.12
-0.36
-0.61
-0.76
-0.76
-0.60
-0.33
-0.05
0.16
0.26
0.29
0.30
0.32
0.35
0.35
0.33
0.29
0.27
0.26
0.24
0.17
0.06
-0.05
-0.06
0.07
0.31
0.54
0.65
0.61
0.48
0.42
0.50
0.70
0.88
0.91
0.72
0.40
0.11
-0.02
0.03
0.17
0.26
0.25
0.19
0.19
0.31
0.53
0.70
0.63
0.24
-0.41
-1.15
-1.73
-1.97
-1.79
-1.26
-0.55
0.14
0.64
0.86
0.77
0.44
-0.01
-0.47
-0.80
-0.94
-0.93
-0.84
-0.75
-0.74
-0.79
-0.86
-0.88
-0.81
-0.67
-0.50
-0.34
-0.17
0.01
0.19
0.33
0.35
0.23
0.01
-0.20
-0.32
-0.30
-0.21
-0.13
-0.12
-0.12
-0.06
0.14
0.48
0.85
1.12
1.16
0.98
0.68
0.41
0.27
0.31
0.44
0.58
0.66
0.64
0.57
0.50
0.45
0.40
0.31
0.15
-0.05
-0.23
-0.36
-0.39
-0.36
-0.30
-0.25
-0.21
-0.18
-0.13
-0.09
-0.06
-0.06
-0.06
-0.05
-0.02
0.03
0.04
-0.05
-0.27
-0.56
-0.83
-0.97
-0.94
-0.75
-0.50
-0.27
-0.12
-0.03
0.03
0.09
0.17
0.24
0.28
0.28
0.24
0.18
0.11
0.06
0.02
0.02
0.09
0.23
0.41
0.54
0.54
0.39
0.14
-0.12
-0.27
-0.28
-0.19
-0.09
-0.06
-0.10
-0.17
-0.16
-0.01
0.24
0.50
0.63
0.57
0.30
-0.07
-0.41
-0.61
-0.64
-0.54
-0.39
-0.29
-0.26
-0.29
-0.32
-0.29
-0.20
-0.05
0.10
0.21
0.25
0.21
0.11
-0.03
-0.14
-0.21
-0.23
-0.19
-0.13
-0.04
0.09
0.23
0.36
0.43
0.40
0.28
0.16
0.09
0.14
0.30
0.50
0.67
0.75
0.69
0.50
0.19
-0.21
-0.62
-0.92
-1.04
-0.96
-0.72
-0.44
-0.21
-0.07
0.02
0.11
0.25
0.40
0.49
0.49
0.41
0.34
0.33
0.41
0.53
0.62
0.62
0.55
0.49
0.49
0.53
0.55
0.46
0.23
-0.05
-0.26
-0.31
-0.25
-0.19
-0.27
-0.53
-0.86
-1.09
-1.08
-0.82
-0.42
-0.09
0.04
-0.07
-0.32
-0.55
-0.61
-0.42
-0.02
0.52
1.01
1.32
1.32
1.05
0.58
0.09
-0.29
-0.51
-0.58
-0.61
-0.65
-0.76
-0.89
-0.96
-0.91
-0.69
-0.35
0.04
0.34
0.49
0.42
0.17
-0.18
-0.51
-0.71
-0.71
-0.47
-0.09
0.34
0.67
0.81
0.75
0.54
0.27
0.02
-0.18
-0.31
-0.34
-0.24
0.01
0.37
0.71
0.92
0.90
0.67
0.35
0.07
-0.04
0.00
0.12
0.20
0.18
0.06
-0.07
-0.16
-0.14
-0.04
0.07
0.13
0.09
-0.06
-0.24
-0.38
-0.42
-0.36
-0.27
-0.25
-0.32
-0.50
-0.67
-0.74
-0.63
-0.37
-0.06
0.19
0.31
0.34
0.34
0.37
0.41
0.41
0.33
0.16
-0.01
-0.10
-0.05
0.07
0.20
0.24
0.18
0.07
-0.04
-0.10
-0.13
-0.19
-0.31
-0.46
-0.62
-0.73
-0.76
-0.71
-0.59
-0.41
-0.19
0.03
0.20
0.29
0.29
0.29
0.36
0.54
0.79
1.01
1.08
0.95
0.69
0.39
0.17
0.03
-0.06
-0.22
-0.47
-0.78
-1.02
-1.06
-0.85
-0.42
0.10
0.53
0.77
0.78
0.61
0.37
0.17
0.10
0.21
0.47
0.79
1.06
1.16
1.02
0.66
0.17
-0.32
-0.69
-0.84
-0.78
-0.55
-0.28
-0.04
0.12
0.20
0.25
0.28
0.29
0.22
0.02
-0.28
-0.62
-0.87
-0.94
-0.77
-0.40
0.06
0.45
0.64
0.59
0.33
0.00
-0.26
-0.36
-0.30
-0.19
-0.16
-0.29
-0.55
-0.81
-0.91
-0.77
-0.46
-0.13
0.07
0.08
-0.06
-0.18
-0.17
0.00
0.29
0.55
0.70
0.70
0.62
0.53
0.48
0.47
0.45
0.35
0.16
-0.10
-0.38
-0.61
-0.77
-0.85
-0.86
-0.78
-0.64
-0.40
-0.06
0.33
0.73
1.01
1.11
1.00
0.74
0.42
0.14
-0.05
-0.14
-0.16
-0.09
0.06
0.28
0.50
0.63
0.57
0.33
0.00
-0.28
-0.40
-0.35
-0.22
-0.16
-0.23
-0.40
-0.59
-0.69
-0.62
-0.40
-0.09
0.25
0.56
0.81
0.95
0.94
0.75
0.42
0.01
-0.36
-0.60
-0.65
-0.56
-0.39
-0.25
-0.21
-0.29
-0.42
-0.53
-0.55
-0.43
-0.24
-0.05
0.03
-0.01
-0.16
-0.31
-0.38
-0.34
-0.22
-0.13
-0.15
-0.31
-0.57
-0.83
-0.97
-0.91
-0.69
-0.38
-0.12
0.02
0.02
-0.06
-0.12
-0.08
0.09
0.38
0.70
0.97
1.13
1.18
1.18
1.17
1.22
1.32
1.39
1.35
1.11
0.68
0.16
-0.29
-0.50
-0.41
-0.09
0.30
0.58
0.64
0.49
0.24
0.02
-0.12
-0.17
-0.22
-0.32
-0.47
-0.57
-0.54
-0.34
-0.03
0.28
0.46
0.44
0.22
-0.12
-0.49
-0.81
-1.00
-1.04
-0.89
-0.59
-0.24
0.03
0.08
-0.13
-0.53
-0.95
-1.21
-1.17
-0.85
-0.38
0.08
0.39
0.55
0.60
0.63
0.70
0.79
0.86
0.85
0.72
0.49
0.24
0.06
0.02
0.12
0.30
0.44
0.41
0.17
-0.23
-0.63
-0.89
-0.92
-0.74
-0.47
-0.25
-0.15
-0.13
-0.10
0.03
0.28
0.56
0.74
0.74
0.56
0.31
0.12
0.04
0.01
-0.10
-0.40
-0.84
-1.26
-1.45
-1.29
-0.84
-0.31
0.08
0.23
0.15
0.02
-0.02
0.11
0.35
0.58
0.69
0.69
0.61
0.56
0.57
0.64
0.69
0.65
0.48
0.24
0.01
-0.16
-0.24
-0.30
-0.44
-0.71
-1.09
-1.46
-1.68
-1.61
-1.23
-0.66
-0.08
0.34
0.49
0.42
0.25
0.14
0.17
0.34
0.59
0.81
0.92
0.87
0.67
0.36
0.04
-0.20
-0.30
-0.27
-0.15
-0.03
0.02
-0.02
-0.12
-0.27
-0.43
-0.60
-0.75
-0.80
-0.68
-0.39
0.01
0.36
0.49
0.35
0.02
-0.32
-0.46
-0.29
0.15
0.71
1.17
1.41
1.38
1.18
0.95
0.78
0.67
0.57
0.40
0.16
-0.07
-0.16
-0.04
0.26
0.60
0.83
0.85
0.68
0.43
0.26
0.23
0.35
0.49
0.54
0.40
0.11
-0.23
-0.49
-0.58
-0.52
-0.41
-0.39
-0.51
-0.77
-1.07
-1.31
-1.45
-1.48
-1.44
-1.37
-1.25
-1.03
-0.69
-0.24
0.22
0.58
0.76
0.76
0.65
0.50
0.38
0.30
0.19
0.01
-0.26
-0.56
-0.78
-0.83
-0.69
-0.41
-0.11
0.08
0.13
0.05
-0.06
-0.14
-0.14
-0.07
0.04
0.14
0.22
0.27
0.31
0.36
0.42
0.50
0.60
0.70
0.73
0.69
0.54
0.33
0.14
0.05
0.09
0.23
0.38
0.44
0.39
0.22
0.01
-0.17
-0.32
-0.44
-0.57
-0.72
-0.86
-0.95
-0.95
-0.87
-0.73
-0.57
-0.37
-0.15
0.12
0.39
0.61
0.67
0.56
0.32
0.07
-0.07
-0.04
0.16
0.41
0.61
0.67
0.61
0.46
0.29
0.18
0.12
0.13
0.17
0.24
0.33
0.41
0.50
0.57
0.63
0.68
0.71
0.68
0.55
0.33
0.05
-0.24
-0.51
-0.72
-0.84
-0.88
-0.82
-0.70
-0.55
-0.46
-0.47
-0.60
-0.80
-0.96
-0.99
-0.85
-0.60
-0.34
-0.20
-0.19
-0.24
-0.22
-0.06
0.23
0.54
0.73
0.74
0.60
0.48
0.48
0.62
0.80
0.88
0.74
0.38
-0.05
-0.39
-0.52
-0.44
-0.27
-0.16
-0.20
-0.35
-0.51
-0.54
-0.35
0.05
0.52
0.91
1.07
0.92
0.51
-0.05
-0.59
-0.94
-0.99
-0.73
-0.27
0.18
0.41
0.30
-0.11
-0.61
-0.93
-0.90
-0.53
0.01
0.45
0.63
0.53
0.30
0.11
0.09
0.21
0.35
0.36
0.19
-0.11
-0.44
-0.67
-0.77
-0.73
-0.61
-0.44
-0.27
-0.10
0.09
0.34
0.65
1.02
1.39
1.66
1.71
1.51
1.08
0.52
-0.01
-0.37
-0.48
-0.38
-0.17
0.02
0.10
0.04
-0.11
-0.24
-0.27
-0.17
0.05
0.29
0.45
0.48
0.39
0.25
0.13
0.06
0.05
0.06
0.06
0.04
0.03
0.06
0.14
0.27
0.41
0.54
0.63
0.69
0.74
0.76
0.72
0.57
0.31
-0.05
-0.42
-0.73
-0.95
-1.09
-1.24
-1.43
-1.67
-1.89
-1.97
-1.83
-1.48
-1.01
-0.55
-0.23
-0.13
-0.21
-0.38
-0.53
-0.58
-0.50
-0.35
-0.20
-0.11
-0.11
-0.18
-0.24
-0.20
-0.02
0.32
0.73
1.09
1.27
1.22
0.97
0.64
0.35
0.22
0.28
0.47
0.70
0.83
0.82
0.65
0.40
0.13
-0.06
-0.14
-0.13
-0.10
-0.12
-0.23
-0.41
-0.60
-0.69
-0.66
-0.49
-0.22
0.08
0.40
0.71
0.99
1.20
1.29
1.20
0.95
0.63
0.34
0.17
0.15
0.19
0.18
0.02
-0.29
-0.65
-0.94
-1.03
-0.90
-0.61
-0.30
-0.07
0.02
-0.00
-0.08
-0.15
-0.18
-0.19
-0.16
-0.11
-0.02
0.09
0.18
0.19
0.10
-0.10
-0.33
-0.52
-0.60
-0.55
-0.41
-0.25
-0.15
-0.15
-0.21
-0.29
-0.32
-0.24
-0.11
0.02
0.03
-0.09
-0.29
-0.42
-0.35
-0.03
0.45
0.89
1.11
1.01
0.65
0.22
-0.09
-0.13
0.10
0.48
0.87
1.14
1.22
1.11
0.84
0.44
0.01
-0.36
-0.59
-0.61
-0.46
-0.21
0.02
0.12
0.08
-0.08
-0.30
-0.52
-0.71
-0.84
-0.88
-0.77
-0.53
-0.19
0.13
0.29
0.24
0.00
-0.30
-0.51
-0.50
-0.24
0.17
0.60
0.90
1.03
0.99
0.84
0.61
0.32
-0.00
-0.32
-0.57
-0.67
-0.63
-0.51
-0.40
-0.37
-0.40
-0.43
-0.38
-0.23
-0.06
0.07
0.08
-0.00
-0.08
-0.08
0.06
0.31
0.59
0.82
0.93
0.91
0.79
0.61
0.42
0.24
0.05
-0.17
-0.45
-0.74
-0.99
-1.10
-0.99
-0.67
-0.23
0.19
0.47
0.53
0.40
0.16
-0.10
-0.31
-0.47
-0.60
-0.72
-0.81
-0.82
-0.72
-0.51
-0.23
0.04
0.26
0.38
0.42
0.36
0.22
0.02
-0.19
-0.33
-0.35
-0.22
-0.02
0.19
0.31
0.33
0.30
0.28
0.32
0.43
0.52
0.56
0.53
0.47
0.43
0.44
0.50
0.57
0.61
0.59
0.53
0.46
0.41
0.38
0.36
0.34
0.28
0.17
0.02
-0.15
-0.30
-0.41
-0.47
-0.50
-0.52
-0.56
-0.57
-0.52
-0.37
-0.15
0.04
0.08
-0.09
-0.42
-0.78
-1.01
-1.03
-0.89
-0.72
-0.60
-0.57
-0.52
-0.37
-0.06
0.33
0.65
0.76
0.61
0.27
-0.12
-0.43
-0.56
-0.47
-0.20
0.18
0.61
1.01
1.33
1.49
1.47
1.29
1.00
0.68
0.42
0.23
0.08
-0.06
-0.20
-0.32
-0.35
-0.27
-0.08
0.14
0.31
0.35
0.29
0.18
0.11
0.13
0.23
0.35
0.43
0.41
0.29
0.09
-0.15
-0.41
-0.64
-0.81
-0.90
-0.86
-0.69
-0.43
-0.13
0.11
0.21
0.14
-0.06
-0.33
-0.56
-0.68
-0.66
-0.51
-0.33
-0.23
-0.31
-0.58
-0.96
-1.29
-1.39
-1.18
-0.70
-0.11
0.39
0.64
0.63
0.45
0.25
0.16
0.25
0.47
0.71
0.89
0.93
0.84
0.66
0.48
0.34
0.27
0.20
0.11
-0.05
-0.26
-0.47
-0.61
-0.64
-0.57
-0.43
-0.27
-0.15
-0.07
-0.02
-0.00
-0.01
-0.07
-0.15
-0.26
-0.34
-0.34
-0.24
-0.03
0.23
0.46
0.58
0.54
0.37
0.13
-0.07
-0.14
-0.08
0.06
0.19
0.27
0.27
0.24
0.24
0.29
0.40
0.52
0.60
0.62
0.58
0.50
0.44
0.38
0.33
0.24
0.12
-0.02
-0.13
-0.16
-0.10
0.04
0.19
0.29
0.29
0.22
0.15
0.15
0.21
0.29
0.26
0.04
-0.37
-0.89
-1.33
-1.54
-1.44
-1.07
-0.56
-0.11
0.15
0.18
0.02
-0.23
-0.45
-0.54
-0.46
-0.21
0.14
0.50
0.78
0.92
0.89
0.71
0.46
0.20
0.00
-0.08
-0.01
0.20
0.47
0.68
0.70
0.47
0.02
-0.55
-1.05
-1.37
-1.47
-1.40
-1.26
-1.10
-0.93
-0.72
-0.47
-0.20
0.04
0.23
0.35
0.46
0.59
0.73
0.83
0.82
0.72
0.57
0.48
0.50
0.62
0.76
0.82
0.77
0.61
0.39
0.18
0.02
-0.06
-0.07
-0.01
0.10
0.23
0.36
0.47
0.54
0.57
0.54
0.43
0.24
-0.02
-0.30
-0.53
-0.63
-0.59
-0.42
-0.19
0.03
0.17
0.23
0.19
0.10
-0.02
-0.13
-0.23
-0.28
-0.30
-0.30
-0.30
-0.29
-0.28
-0.26
-0.25
-0.29
-0.42
-0.65
-0.95
-1.22
-1.35
-1.22
-0.84
-0.28
0.30
0.70
0.79
0.55
0.11
-0.33
-0.59
-0.57
-0.31
0.06
0.38
0.55
0.55
0.43
0.26
0.07
-0.15
-0.39
-0.63
-0.80
-0.85
-0.73
-0.47
-0.14
0.16
0.37
0.47
0.48
0.46
0.47
0.49
0.51
0.46
0.31
0.14
0.05
0.14
0.44
0.84
1.19
1.34
1.20
0.86
0.46
0.13
-0.05
-0.08
-0.06
-0.05
-0.10
-0.21
-0.36
-0.52
-0.66
-0.74
-0.74
-0.65
-0.50
-0.32
-0.13
0.06
0.25
0.43
0.57
0.59
0.45
0.16
-0.20
-0.48
-0.58
-0.48
-0.27
-0.09
-0.03
-0.09
-0.17
-0.18
-0.10
0.00
0.02
-0.12
-0.36
-0.58
-0.61
-0.39
0.02
0.47
0.75
0.74
0.46
0.01
-0.44
-0.74
-0.84
-0.78
-0.62
-0.43
-0.23
-0.04
0.14
0.30
0.40
0.42
0.40
0.39
0.47
0.66
0.93
1.17
1.27
1.11
0.72
0.20
-0.30
-0.61
-0.65
-0.46
-0.14
0.18
0.38
0.40
0.23
-0.07
-0.39
-0.58
-0.52
-0.18
0.34
0.85
1.13
1.08
0.71
0.21
-0.22
-0.48
-0.57
-0.61
-0.67
-0.77
-0.83
-0.74
-0.47
-0.08
0.29
0.54
0.64
0.64
0.64
0.69
0.78
0.82
0.71
0.42
-0.01
-0.47
-0.83
-1.00
-0.98
-0.81
-0.56
-0.31
-0.10
0.06
0.17
0.23
0.25
0.23
0.16
0.04
-0.10
-0.26
-0.39
-0.47
-0.46
-0.39
-0.29
-0.24
-0.26
-0.35
-0.47
-0.59
-0.66
-0.67
-0.63
-0.55
-0.44
-0.29
-0.09
0.11
0.28
0.37
0.40
0.41
0.46
0.59
0.77
0.90
0.89
0.70
0.36
-0.01
-0.29
-0.40
-0.33
-0.16
0.01
0.10
0.10
-0.01
-0.17
-0.34
-0.47
-0.49
-0.38
-0.11
0.28
0.70
1.02
1.11
0.93
0.53
0.05
-0.33
-0.49
-0.42
-0.19
0.10
0.35
0.50
0.51
0.38
0.11
-0.30
-0.79
-1.25
-1.56
-1.59
-1.29
-0.72
-0.01
0.65
1.13
1.34
1.32
1.13
0.85
0.56
0.29
0.08
-0.05
-0.06
0.04
0.18
0.28
0.27
0.12
-0.16
-0.49
-0.77
-0.94
-0.98
-0.91
-0.75
-0.54
-0.32
-0.12
0.02
0.06
-0.01
-0.16
-0.38
-0.59
-0.72
-0.72
-0.53
-0.18
0.28
0.71
1.00
1.11
1.03
0.83
0.62
0.46
0.36
0.27
0.15
0.00
-0.14
-0.21
-0.18
-0.06
0.08
0.18
0.20
0.14
0.03
-0.07
-0.13
-0.12
-0.06
0.03
0.07
0.03
-0.12
-0.35
-0.56
-0.68
-0.61
-0.37
-0.03
0.34
0.64
0.87
1.04
1.16
1.25
1.27
1.18
0.98
0.71
0.44
0.22
0.09
0.05
0.06
0.05
-0.02
-0.15
-0.35
-0.57
-0.79
-0.99
-1.15
-1.25
-1.27
-1.21
-1.06
-0.85
-0.61
-0.40
-0.29
-0.29
-0.41
-0.63
-0.88
-1.05
-1.08
-0.91
-0.60
-0.26
-0.02
0.02
-0.10
-0.27
-0.34
-0.20
0.11
0.49
0.81
0.99
1.01
0.96
0.92
0.96
1.09
1.25
1.35
1.28
1.01
0.56
0.06
-0.33
-0.50
-0.40
-0.13
0.14
0.29
0.29
0.21
0.17
0.27
0.46
0.65
0.72
0.60
0.32
-0.04
-0.36
-0.56
-0.61
-0.53
-0.36
-0.19
-0.09
-0.08
-0.16
-0.28
-0.38
-0.46
-0.50
-0.53
-0.55
-0.54
-0.46
-0.29
-0.09
0.07
0.11
0.05
-0.05
-0.09
-0.04
0.11
0.27
0.38
0.40
0.34
0.25
0.17
0.10
0.05
0.02
-0.02
-0.07
-0.14
-0.20
-0.20
-0.10
0.13
0.42
0.67
0.77
0.64
0.28
-0.19
-0.61
-0.83
-0.76
-0.41
0.07
0.46
0.61
0.47
0.15
-0.16
-0.30
-0.27
-0.16
-0.15
-0.34
-0.68
-1.02
-1.18
-1.05
-0.68
-0.20
0.23
0.48
0.55
0.49
0.39
0.30
0.26
0.23
0.12
-0.11
-0.49
-0.93
-1.31
-1.49
-1.42
-1.11
-0.67
-0.20
0.23
0.57
0.84
1.03
1.11
1.09
0.96
0.78
0.60
0.48
0.41
0.36
0.29
0.17
0.05
-0.04
-0.06
0.00
0.11
0.24
0.33
0.38
0.37
0.29
0.17
0.04
-0.04
-0.05
0.03
0.16
0.30
0.41
0.47
0.49
0.43
0.29
0.03
-0.29
-0.60
-0.78
-0.76
-0.59
-0.35
-0.16
-0.08
-0.08
-0.08
-0.00
0.13
0.27
0.31
0.22
0.05
-0.12
-0.22
-0.23
-0.19
-0.16
-0.18
-0.26
-0.39
-0.50
-0.55
-0.51
-0.38
-0.22
-0.09
-0.06
-0.14
-0.29
-0.39
-0.34
-0.08
0.36
0.86
1.25
1.41
1.29
0.94
0.49
0.08
-0.18
-0.24
-0.16
-0.02
0.07
0.05
-0.08
-0.28
-0.50
-0.69
-0.82
-0.87
-0.79
-0.57
-0.21
0.22
0.60
0.78
0.70
0.37
-0.07
-0.47
-0.69
-0.67
-0.46
-0.12
0.21
0.43
0.49
0.35
0.02
-0.42
-0.85
-1.14
-1.20
-1.01
-0.62
-0.13
0.35
0.75
1.00
1.10
1.01
0.78
0.46
0.14
-0.08
-0.14
-0.02
0.19
0.39
0.49
0.47
0.36
0.24
0.20
0.25
0.37
0.49
0.54
0.49
0.37
0.25
0.19
0.21
0.28
0.35
0.37
0.34
0.28
0.22
0.15
0.07
-0.07
-0.28
-0.54
-0.79
-0.94
-0.92
-0.70
-0.30
0.14
0.47
0.56
0.37
-0.04
-0.49
-0.81
-0.91
-0.79
-0.54
-0.27
-0.07
0.04
0.08
0.06
-0.03
-0.18
-0.38
-0.62
-0.84
-1.00
-1.04
-0.95
-0.73
-0.37
0.08
0.56
0.94
1.12
1.06
0.79
0.40
0.06
-0.15
-0.18
-0.06
0.15
0.42
0.70
0.94
1.08
1.02
0.75
0.33
-0.10
-0.37
-0.40
-0.23
0.03
0.24
0.31
0.26
0.11
-0.06
-0.22
-0.35
-0.43
-0.43
-0.37
-0.27
-0.20
-0.19
-0.23
-0.25
-0.20
-0.04
0.15
0.26
0.20
0.01
-0.20
-0.28
-0.17
0.11
0.41
0.58
0.56
0.37
0.13
-0.02
-0.04
0.06
0.20
0.34
0.47
0.63
0.83
1.05
1.22
1.25
1.07
0.69
0.21
-0.26
-0.62
-0.85
-0.98
-1.06
-1.11
-1.10
-1.01
-0.81
-0.57
-0.40
-0.39
-0.57
-0.82
-0.97
-0.88
-0.50
0.01
0.43
0.58
0.43
0.13
-0.10
-0.10
0.13
0.43
0.58
0.46
0.10
-0.35
-0.65
-0.69
-0.47
-0.11
0.20
0.34
0.28
0.07
-0.16
-0.33
-0.41
-0.41
-0.42
-0.47
-0.60
-0.79
-0.97
-1.06
-1.02
-0.82
-0.49
-0.12
0.18
0.33
0.34
0.25
0.15
0.13
0.22
0.37
0.53
0.62
0.63
0.57
0.47
0.36
0.28
0.27
0.37
0.64
1.03
1.43
1.68
1.61
1.21
0.62
0.05
-0.31
-0.40
-0.30
-0.18
-0.18
-0.34
-0.55
-0.71
-0.76
-0.74
-0.73
-0.79
-0.90
-0.98
-0.90
-0.64
-0.25
0.12
0.35
0.38
0.24
0.07
-0.01
0.07
0.28
0.53
0.71
0.75
0.69
0.57
0.47
0.43
0.43
0.43
0.38
0.29
0.17
0.09
0.06
0.09
0.16
0.23
0.29
0.34
0.40
0.45
0.47
0.42
0.22
-0.13
-0.56
-0.96
-1.18
-1.13
-0.85
-0.44
-0.07
0.14
0.20
0.17
0.16
0.23
0.37
0.48
0.48
0.34
0.12
-0.09
-0.23
-0.26
-0.21
-0.13
-0.02
0.09
0.22
0.32
0.34
0.24
0.00
-0.29
-0.53
-0.61
-0.51
-0.26
-0.01
0.14
0.14
0.05
-0.04
-0.03
0.07
0.19
0.20
0.06
-0.21
-0.48
-0.60
-0.50
-0.21
0.14
0.40
0.51
0.44
0.26
0.02
-0.26
-0.56
-0.85
-1.04
-1.05
-0.83
-0.45
-0.06
0.17
0.16
-0.06
-0.34
-0.50
-0.44
-0.20
0.11
0.35
0.43
0.37
0.25
0.14
0.08
0.08
0.08
0.07
0.04
-0.01
-0.08
-0.20
-0.36
-0.56
-0.69
-0.69
-0.49
-0.14
0.27
0.59
0.73
0.66
0.44
0.16
-0.09
-0.25
-0.30
-0.22
-0.01
0.30
0.64
0.91
1.01
0.88
0.56
0.16
-0.18
-0.35
-0.35
-0.26
-0.21
-0.28
-0.49
-0.74
-0.92
-0.91
-0.70
-0.33
0.08
0.45
0.72
0.89
0.97
0.96
0.86
0.69
0.49
0.31
0.19
0.15
0.13
0.11
0.06
-0.01
-0.07
-0.09
-0.08
-0.09
-0.15
-0.24
-0.28
-0.20
0.00
0.27
0.48
0.51
0.33
0.01
-0.31
-0.50
-0.51
-0.37
-0.17
0.01
0.12
0.19
0.24
0.31
0.41
0.54
0.66
0.72
0.69
0.56
0.35
0.13
-0.02
-0.06
0.03
0.16
0.24
0.20
0.00
-0.31
-0.65
-0.90
-0.98
-0.86
-0.59
-0.25
0.05
0.21
0.23
0.14
0.03
-0.01
0.04
0.13
0.18
0.11
-0.10
-0.36
-0.55
-0.55
-0.35
-0.02
0.34
0.61
0.75
0.76
0.68
0.52
0.32
0.11
-0.09
-0.24
-0.34
-0.42
-0.52
-0.63
-0.75
-0.80
-0.75
-0.59
-0.40
-0.25
-0.18
-0.16
-0.15
-0.10
-0.02
0.06
0.10
0.09
0.07
0.10
0.22
0.41
0.63
0.81
0.89
0.85
0.72
0.55
0.41
0.34
0.31
0.29
0.23
0.14
0.02
-0.10
-0.19
-0.25
-0.30
-0.33
-0.31
-0.26
-0.20
-0.18
-0.26
-0.46
-0.77
-1.14
-1.50
-1.76
-1.86
-1.74
-1.39
-0.87
-0.28
0.23
0.53
0.62
0.57
0.51
0.52
0.61
0.69
0.68
0.55
0.39
0.32
0.41
0.64
0.85
0.89
0.68
0.30
-0.08
-0.24
-0.09
0.33
0.82
1.17
1.18
0.84
0.25
-0.38
-0.82
-0.95
-0.77
-0.38
0.02
0.27
0.31
0.16
-0.09
-0.30
-0.38
-0.28
-0.06
0.20
0.40
0.48
0.41
0.21
-0.07
-0.36
-0.61
-0.77
-0.83
-0.81
-0.72
-0.60
-0.46
-0.34
-0.25
-0.21
-0.22
-0.26
-0.29
-0.26
-0.13
0.11
0.44
0.79
1.08
1.22
1.15
0.86
0.42
-0.04
-0.36
-0.40
-0.13
0.33
0.75
0.94
0.82
0.46
0.05
-0.23
-0.27
-0.10
0.19
0.45
0.60
0.59
0.43
0.16
-0.18
-0.53
-0.83
-1.01
-1.02
-0.85
-0.54
-0.15
0.22
0.47
0.54
0.40
0.11
-0.24
-0.54
-0.70
-0.68
-0.52
-0.26
-0.01
0.15
0.16
-0.01
-0.30
-0.61
-0.80
-0.77
-0.49
-0.05
0.42
0.76
0.88
0.78
0.52
0.18
-0.14
-0.37
-0.47
-0.41
-0.22
0.05
0.30
0.42
0.36
0.14
-0.16
-0.40
-0.51
-0.48
-0.36
-0.23
-0.14
-0.08
-0.05
-0.02
0.02
0.05
0.06
0.07
0.12
0.26
0.49
0.75
0.96
1.02
0.90
0.63
0.29
-0.03
-0.27
-0.42
-0.52
-0.61
-0.72
-0.84
-0.89
-0.81
-0.58
-0.24
0.13
0.41
0.52
0.47
0.32
0.15
0.06
0.07
0.14
0.23
0.28
0.28
0.25
0.18
0.09
-0.04
-0.18
-0.32
-0.38
-0.34
-0.22
-0.07
0.04
0.05
-0.02
-0.13
-0.22
-0.29
-0.35
-0.44
-0.54
-0.60
-0.58
-0.46
-0.30
-0.15
-0.07
-0.06
-0.07
-0.05
0.00
0.07
0.14
0.21
0.31
0.48
0.70
0.87
0.88
0.65
0.21
-0.28
-0.65
-0.75
-0.57
-0.19
0.25
0.65
0.98
1.23
1.42
1.51
1.45
1.22
0.84
0.40
0.00
-0.27
-0.41
-0.45
-0.44
-0.42
-0.39
-0.34
-0.27
-0.19
-0.11
-0.06
-0.03
0.02
0.10
0.20
0.29
0.35
0.36
0.35
0.32
0.30
0.26
0.19
0.08
-0.04
-0.11
-0.12
-0.08
-0.03
-0.02
-0.05
-0.10
-0.10
-0.05
0.06
0.15
0.19
0.14
-0.00
-0.20
-0.39
-0.53
-0.58
-0.55
-0.46
-0.33
-0.21
-0.13
-0.11
-0.19
-0.38
-0.64
-0.88
-0.99
-0.88
-0.57
-0.16
0.17
0.29
0.15
-0.15
-0.46
-0.61
-0.57
-0.37
-0.11
0.11
0.26
0.33
0.35
0.32
0.22
0.02
-0.27
-0.60
-0.83
-0.88
-0.69
-0.31
0.12
0.44
0.56
0.45
0.22
-0.02
-0.13
-0.08
0.10
0.34
0.55
0.70
0.78
0.82
0.84
0.84
0.82
0.77
0.68
0.54
0.34
0.07
-0.22
-0.46
-0.58
-0.52
-0.32
-0.09
0.04
-0.01
-0.27
-0.64
-0.95
-1.07
-0.94
-0.63
-0.24
0.08
0.26
0.28
0.20
0.07
-0.08
-0.21
-0.30
-0.28
-0.12
0.16
0.50
0.78
0.87
0.74
0.48
0.23
0.09
0.10
0.18
0.26
0.29
0.28
0.29
0.34
0.40
0.40
0.29
0.12
-0.02
-0.03
0.10
0.26
0.32
0.22
-0.00
-0.21
-0.28
-0.18
0.01
0.14
0.13
-0.03
-0.28
-0.52
-0.68
-0.74
-0.75
-0.72
-0.67
-0.60
-0.52
-0.45
-0.39
-0.33
-0.27
-0.21
-0.19
-0.26
-0.44
-0.68
-0.90
-0.96
-0.81
-0.44
0.08
0.64
1.14
1.50
1.66
1.63
1.43
1.13
0.83
0.62
0.52
0.51
0.54
0.53
0.45
0.31
0.18
0.08
0.03
-0.02
-0.08
-0.17
-0.28
-0.37
-0.40
-0.37
-0.30
-0.20
-0.09
0.02
0.11
0.16
0.12
-0.04
-0.30
-0.59
-0.81
-0.91
-0.86
-0.72
-0.55
-0.37
-0.18
0.01
0.22
0.38
0.44
0.35
0.18
-0.00
-0.10
-0.06
0.06
0.15
0.13
-0.02
-0.23
-0.41
-0.50
-0.48
-0.41
-0.35
-0.31
-0.27
-0.17
-0.00
0.22
0.41
0.50
0.43
0.25
0.05
-0.06
-0.05
0.08
0.23
0.34
0.39
0.42
0.47
0.56
0.65
0.69
0.62
0.42
0.10
-0.28
-0.65
-0.97
-1.16
-1.18
-1.01
-0.66
-0.20
0.27
0.64
0.80
0.73
0.46
0.05
-0.36
-0.66
-0.77
-0.71
-0.52
-0.30
-0.12
0.00
0.05
0.05
-0.00
-0.09
-0.19
-0.25
-0.19
0.01
0.33
0.67
0.88
0.86
0.57
0.07
-0.46
-0.86
-1.02
-0.91
-0.60
-0.19
0.19
0.44
0.50
0.36
0.08
-0.22
-0.43
-0.44
-0.23
0.10
0.44
0.67
0.75
0.73
0.69
0.69
0.71
0.71
0.60
0.39
0.09
-0.20
-0.40
-0.46
-0.37
-0.18
0.04
0.19
0.21
0.09
-0.10
-0.26
-0.28
-0.10
0.25
0.64
0.91
0.93
0.68
0.27
-0.14
-0.40
-0.42
-0.26
-0.03
0.15
0.20
0.13
0.03
-0.04
-0.04
0.04
0.15
0.26
0.32
0.31
0.23
0.10
0.02
0.04
0.16
0.33
0.41
0.33
0.06
-0.26
-0.49
-0.50
-0.29
0.02
0.29
0.42
0.40
0.32
0.25
0.21
0.14
-0.03
-0.33
-0.72
-1.06
-1.25
-1.20
-0.95
-0.61
-0.32
-0.17
-0.17
-0.26
-0.36
-0.42
-0.46
-0.50
-0.59
-0.68
-0.69
-0.58
-0.33
-0.06
0.10
0.03
-0.26
-0.63
-0.87
-0.78
-0.32
0.39
1.13
1.64
1.79
1.59
1.20
0.81
0.58
0.53
0.60
0.65
0.60
0.41
0.16
-0.07
-0.20
-0.16
0.01
0.25
0.46
0.58
0.58
0.47
0.28
0.06
-0.15
-0.33
-0.46
-0.52
-0.53
-0.51
-0.48
-0.47
-0.46
-0.44
-0.41
-0.40
-0.45
-0.55
-0.70
-0.85
-0.94
-0.93
-0.83
-0.68
-0.52
-0.36
-0.23
-0.11
-0.02
0.08
0.21
0.42
0.72
1.02
1.21
1.17
0.87
0.42
-0.02
-0.28
-0.27
-0.05
0.25
0.47
0.54
0.45
0.28
0.15
0.13
0.24
0.42
0.55
0.54
0.34
0.02
-0.25
-0.31
-0.09
0.31
0.68
0.81
0.62
0.20
-0.25
-0.58
-0.74
-0.82
-0.94
-1.13
-1.32
-1.38
-1.22
-0.87
-0.46
-0.11
0.09
0.16
0.17
0.18
0.18
0.12
-0.03
-0.23
-0.41
-0.49
-0.44
-0.29
-0.13
-0.03
-0.02
-0.09
-0.19
-0.25
-0.23
-0.12
0.07
0.29
0.47
0.57
0.57
0.51
0.44
0.40
0.37
0.32
0.18
-0.04
-0.26
-0.36
-0.28
-0.04
0.23
0.41
0.40
0.20
-0.09
-0.35
-0.46
-0.39
-0.16
0.15
0.42
0.55
0.52
0.35
0.09
-0.16
-0.28
-0.23
-0.01
0.32
0.69
0.99
1.17
1.19
1.07
0.89
0.71
0.64
0.68
0.82
0.97
1.03
0.95
0.72
0.37
-0.05
-0.47
-0.84
-1.09
-1.16
-1.00
-0.61
-0.09
0.39
0.63
0.55
0.17
-0.36
-0.84
-1.11
-1.14
-0.99
-0.76
-0.56
-0.42
-0.33
-0.25
-0.17
-0.07
0.03
0.12
0.18
0.20
0.16
0.07
-0.05
-0.17
-0.25
-0.30
-0.37
-0.50
-0.69
-0.89
-1.00
-0.92
-0.62
-0.15
0.33
0.69
0.85
0.83
0.69
0.49
0.25
-0.03
-0.37
-0.72
-0.97
-1.00
-0.76
-0.30
0.21
0.60
0.77
0.73
0.56
0.40
0.31
0.29
0.31
0.31
0.28
0.22
0.11
-0.03
-0.23
-0.45
-0.60
-0.59
-0.40
-0.07
0.30
0.56
0.66
0.62
0.52
0.42
0.33
0.24
0.12
0.00
-0.09
-0.12
-0.09
-0.04
-0.03
-0.09
-0.16
-0.18
-0.07
0.15
0.40
0.58
0.60
0.48
0.33
0.25
0.30
0.43
0.52
0.45
0.19
-0.21
-0.60
-0.86
-0.92
-0.81
-0.61
-0.39
-0.21
-0.09
-0.01
0.00
-0.07
-0.22
-0.42
-0.61
-0.72
-0.75
-0.76
-0.84
-1.00
-1.17
-1.23
-1.01
-0.50
0.22
0.92
1.42
1.62
1.57
1.41
1.26
1.13
1.00
0.80
0.57
0.38
0.30
0.34
0.43
0.46
0.37
0.20
0.00
-0.14
-0.24
-0.33
-0.48
-0.69
-0.88
-0.95
-0.83
-0.52
-0.09
0.34
0.69
0.87
0.84
0.61
0.20
-0.29
-0.76
-1.07
-1.17
-1.05
-0.75
-0.37
0.02
0.34
0.54
0.63
0.62
0.53
0.37
0.14
-0.14
-0.44
-0.69
-0.80
-0.72
-0.45
-0.03
0.44
0.84
1.09
1.11
0.88
0.46
-0.03
-0.45
-0.68
-0.67
-0.48
-0.24
-0.07
-0.04
-0.10
-0.13
-0.03
0.19
0.47
0.67
0.70
0.53
0.24
-0.05
-0.23
-0.23
-0.07
0.19
0.44
0.62
0.69
0.65
0.53
0.36
0.16
-0.06
-0.28
-0.48
-0.65
-0.77
-0.82
-0.82
-0.78
-0.73
-0.69
-0.68
-0.72
-0.79
-0.88
-0.91
-0.85
-0.66
-0.40
-0.11
0.14
0.34
0.52
0.70
0.88
1.01
1.02
0.87
0.61
0.31
0.07
-0.06
-0.08
-0.01
0.11
0.30
0.52
0.73
0.83
0.76
0.51
0.18
-0.09
-0.20
-0.14
0.00
0.09
0.04
-0.18
-0.49
-0.79
-0.99
-1.05
-0.95
-0.70
-0.34
0.07
0.46
0.75
0.86
0.76
0.45
0.03
-0.39
-0.67
-0.72
-0.53
-0.16
0.28
0.64
0.81
0.78
0.54
0.15
-0.30
-0.76
-1.17
-1.46
-1.55
-1.40
-1.01
-0.47
0.07
0.47
0.64
0.58
0.38
0.18
0.11
0.21
0.47
0.77
1.03
1.14
1.07
0.84
0.52
0.19
-0.05
-0.14
-0.06
0.13
0.34
0.46
0.48
0.42
0.37
0.37
0.41
0.39
0.21
-0.16
-0.64
-1.07
-1.26
-1.16
-0.80
-0.37
-0.01
0.15
0.11
-0.05
-0.23
-0.35
-0.36
-0.28
-0.17
-0.07
-0.03
-0.02
-0.00
0.06
0.17
0.27
0.30
0.22
0.10
0.02
0.08
0.28
0.52
0.65
0.56
0.30
-0.01
-0.21
-0.25
-0.16
-0.05
-0.02
-0.07
-0.15
-0.18
-0.11
0.01
0.11
0.12
0.01
-0.19
-0.40
-0.55
-0.57
-0.43
-0.16
0.16
0.42
0.52
0.40
0.12
-0.25
-0.62
-0.93
-1.16
-1.30
-1.35
-1.31
-1.16
-0.93
-0.63
-0.32
-0.01
0.30
0.62
0.96
1.29
1.54
1.62
1.51
1.22
0.83
0.43
0.10
-0.12
-0.26
-0.37
-0.47
-0.56
-0.56
-0.42
-0.11
0.31
0.75
1.08
1.22
1.11
0.79
0.36
-0.06
-0.38
-0.56
-0.59
-0.53
-0.43
-0.35
-0.33
-0.41
-0.54
-0.69
-0.78
-0.76
-0.64
-0.45
-0.26
-0.11
-0.04
-0.03
-0.07
-0.09
-0.08
-0.00
0.12
0.28
0.43
0.51
0.49
0.35
0.14
-0.07
-0.19
-0.16
-0.00
0.22
0.44
0.56
0.58
0.52
0.45
0.41
0.40
0.36
0.21
-0.07
-0.44
-0.78
-0.96
-0.92
-0.67
-0.31
0.05
0.34
0.53
0.63
0.63
0.57
0.46
0.33
0.24
0.22
0.27
0.37
0.47
0.50
0.43
0.28
0.09
-0.10
-0.22
-0.28
-0.32
-0.36
-0.41
-0.45
-0.40
-0.22
0.09
0.45
0.77
0.97
1.01
0.93
0.79
0.62
0.44
0.25
0.03
-0.19
-0.37
-0.48
-0.49
-0.38
-0.20
-0.03
0.05
-0.04
-0.33
-0.74
-1.15
-1.43
-1.44
-1.20
-0.80
-0.44
-0.27
-0.38
-0.70
-1.07
-1.33
-1.34
-1.10
-0.67
-0.15
0.34
0.73
0.96
1.04
0.99
0.90
0.81
0.78
0.77
0.73
0.61
0.39
0.13
-0.09
-0.23
-0.27
-0.26
-0.25
-0.24
-0.18
-0.05
0.14
0.32
0.42
0.38
0.24
0.07
-0.04
-0.05
-0.00
0.04
0.01
-0.07
-0.11
-0.02
0.22
0.52
0.74
0.71
0.42
-0.03
-0.44
-0.63
-0.51
-0.18
0.22
0.51
0.64
0.61
0.52
0.44
0.38
0.30
0.16
-0.04
-0.24
-0.36
-0.33
-0.15
0.10
0.32
0.41
0.32
0.12
-0.09
-0.22
-0.20
-0.10
0.00
-0.01
-0.16
-0.42
-0.67
-0.83
-0.88
-0.83
-0.75
-0.69
-0.68
-0.69
-0.69
-0.70
-0.70
-0.70
-0.69
-0.64
-0.50
-0.29
-0.02
0.24
0.44
0.55
0.58
0.55
0.51
0.50
0.55
0.66
0.80
0.91
0.94
0.84
0.60
0.25
-0.12
-0.45
-0.67
-0.75
-0.70
-0.58
-0.41
-0.26
-0.15
-0.09
-0.07
-0.09
-0.13
-0.19
-0.26
-0.32
-0.35
-0.31
-0.17
0.06
0.34
0.61
0.80
0.89
0.87
0.81
0.78
0.83
0.97
1.14
1.22
1.11
0.77
0.27
-0.25
-0.62
-0.74
-0.61
-0.32
-0.01
0.25
0.37
0.35
0.19
-0.09
-0.44
-0.75
-0.94
-0.93
-0.74
-0.43
-0.12
0.11
0.26
0.39
0.55
0.77
0.98
1.08
0.97
0.64
0.16
-0.34
-0.73
-0.97
-1.06
-1.03
-0.94
-0.78
-0.58
-0.37
-0.21
-0.15
-0.19
-0.29
-0.37
-0.34
-0.21
-0.01
0.16
0.23
0.16
-0.03
-0.29
-0.55
-0.73
-0.77
-0.66
-0.43
-0.14
0.12
0.31
0.41
0.44
0.44
0.43
0.40
0.33
0.22
0.07
-0.05
-0.06
0.07
0.31
0.54
0.66
0.58
0.33
-0.00
-0.28
-0.40
-0.31
-0.03
0.35
0.75
1.07
1.25
1.26
1.10
0.79
0.39
-0.02
-0.37
-0.60
-0.71
-0.70
-0.63
-0.53
-0.42
-0.30
-0.16
-0.00
0.16
0.29
0.34
0.30
0.18
0.03
-0.09
-0.15
-0.15
-0.11
-0.09
-0.11
-0.15
-0.18
-0.18
-0.14
-0.10
-0.13
-0.26
-0.49
-0.73
-0.91
-0.95
-0.88
-0.77
-0.70
-0.70
-0.70
-0.61
-0.37
0.01
0.41
0.68
0.73
0.55
0.24
-0.07
-0.29
-0.38
-0.37
-0.28
-0.12
0.10
0.34
0.57
0.72
0.77
0.73
0.64
0.53
0.41
0.29
0.18
0.09
0.04
0.02
-0.01
-0.10
-0.29
-0.54
-0.78
-0.89
-0.81
-0.54
-0.15
0.25
0.53
0.61
0.48
0.20
-0.13
-0.37
-0.42
-0.25
0.07
0.42
0.66
0.70
0.55
0.29
0.05
-0.07
-0.03
0.14
0.37
0.57
0.69
0.70
0.65
0.56
0.48
0.40
0.33
0.27
0.19
0.13
0.12
0.17
0.27
0.33
0.31
0.17
-0.06
-0.29
-0.45
-0.51
-0.51
-0.52
-0.57
-0.65
-0.73
-0.74
-0.65
-0.47
-0.21
0.09
0.39
0.67
0.89
1.01
1.00
0.89
0.72
0.54
0.39
0.26
0.13
-0.01
-0.12
-0.15
-0.08
0.09
0.26
0.34
0.27
0.08
-0.18
-0.42
-0.62
-0.79
-0.96
-1.12
-1.22
-1.20
-1.05
-0.82
-0.61
-0.51
-0.48
-0.45
-0.30
-0.01
0.37
0.66
0.77
0.63
0.30
-0.09
-0.39
-0.53
-0.51
-0.36
-0.18
-0.02
0.08
0.13
0.14
0.14
0.12
0.10
0.08
0.07
0.09
0.14
0.22
0.32
0.42
0.50
0.57
0.61
0.60
0.52
0.40
0.26
0.20
0.23
0.34
0.43
0.36
0.07
-0.42
-0.94
-1.29
-1.28
-0.86
-0.15
0.62
1.17
1.33
1.10
0.59
-0.00
-0.52
-0.86
-0.98
-0.91
-0.68
-0.36
-0.02
0.20
0.25
0.09
-0.17
-0.41
-0.48
-0.34
-0.06
0.21
0.33
0.25
-0.02
-0.37
-0.68
-0.85
-0.85
-0.69
-0.44
-0.19
-0.00
0.11
0.16
0.20
0.28
0.40
0.52
0.56
0.48
0.29
0.07
-0.09
-0.10
0.02
0.19
0.33
0.37
0.35
0.32
0.33
0.35
0.32
0.19
-0.03
-0.26
-0.41
-0.40
-0.25
-0.03
0.18
0.35
0.44
0.44
0.36
0.17
-0.12
-0.45
-0.72
-0.82
-0.72
-0.44
-0.11
0.13
0.22
0.16
0.02
-0.11
-0.20
-0.24
-0.25
-0.24
-0.18
-0.07
0.11
0.28
0.35
0.29
0.09
-0.16
-0.35
-0.41
-0.33
-0.13
0.14
0.44
0.74
0.99
1.13
1.12
0.96
0.70
0.40
0.12
-0.09
-0.26
-0.39
-0.51
-0.58
-0.57
-0.47
-0.27
-0.01
0.25
0.44
0.51
0.45
0.25
-0.05
-0.38
-0.69
-0.93
-1.03
-0.97
-0.73
-0.38
-0.01
0.26
0.34
0.23
-0.03
-0.30
-0.50
-0.58
-0.55
-0.47
-0.36
-0.22
-0.03
0.22
0.48
0.66
0.72
0.62
0.45
0.30
0.26
0.36
0.52
0.61
0.56
0.37
0.15
-0.01
-0.04
0.04
0.10
0.04
-0.20
-0.57
-0.94
-1.17
-1.14
-0.85
-0.37
0.15
0.54
0.63
0.41
-0.06
-0.57
-0.95
-1.08
-0.98
-0.74
-0.49
-0.31
-0.20
-0.11
-0.04
0.05
0.11
0.13
0.10
0.04
-0.06
-0.16
-0.24
-0.28
-0.28
-0.25
-0.21
-0.19
-0.18
-0.18
-0.17
-0.13
-0.04
0.10
0.29
0.51
0.67
0.67
0.49
0.17
-0.13
-0.25
-0.04
0.46
1.12
1.74
2.12
2.19
1.97
1.52
0.99
0.48
0.07
-0.20
-0.32
-0.35
-0.32
-0.30
-0.29
-0.27
-0.24
-0.19
-0.17
-0.20
-0.28
-0.39
-0.47
-0.47
-0.38
-0.24
-0.08
0.07
0.20
0.31
0.40
0.44
0.39
0.20
-0.07
-0.37
-0.55
-0.51
-0.24
0.21
0.70
1.07
1.23
1.16
0.93
0.61
0.30
0.06
-0.09
-0.12
-0.02
0.21
0.54
0.86
1.08
1.11
0.92
0.55
0.13
-0.26
-0.54
-0.72
-0.82
-0.84
-0.77
-0.61
-0.39
-0.19
-0.12
-0.23
-0.48
-0.75
-0.88
-0.80
-0.57
-0.33
-0.22
-0.30
-0.52
-0.75
-0.86
-0.82
-0.67
-0.50
-0.36
-0.26
-0.19
-0.11
-0.02
0.06
0.13
0.20
0.27
0.34
0.39
0.40
0.38
0.38
0.42
0.50
0.60
0.61
0.50
0.26
-0.03
-0.27
-0.38
-0.37
-0.30
-0.24
-0.23
-0.25
-0.28
-0.26
-0.22
-0.18
-0.14
-0.11
-0.06
0.06
0.28
0.55
0.82
0.99
1.02
0.92
0.76
0.63
0.58
0.60
0.60
0.52
0.31
0.04
-0.19
-0.27
-0.17
0.02
0.17
0.19
0.03
-0.25
-0.56
-0.79
-0.95
-1.04
-1.10
-1.15
-1.15
-1.04
-0.80
-0.47
-0.14
0.06
0.06
-0.13
-0.42
-0.68
-0.83
-0.81
-0.68
-0.48
-0.30
-0.14
-0.00
0.15
0.33
0.51
0.65
0.70
0.67
0.59
0.52
0.49
0.51
0.54
0.55
0.48
0.35
0.17
-0.05
-0.28
-0.53
-0.78
-0.96
-1.01
-0.83
-0.43
0.13
0.68
1.05
1.14
0.95
0.60
0.21
-0.12
-0.34
-0.44
-0.47
-0.40
-0.24
0.04
0.37
0.69
0.88
0.88
0.69
0.40
0.14
0.03
0.10
0.27
0.44
0.49
0.38
0.14
-0.13
-0.34
-0.45
-0.46
-0.41
-0.33
-0.24
-0.13
-0.00
0.15
0.30
0.42
0.47
0.43
0.28
0.04
-0.22
-0.43
-0.52
-0.49
-0.40
-0.36
-0.44
-0.63
-0.85
-0.97
-0.86
-0.52
-0.00
0.56
1.03
1.29
1.30
1.07
0.67
0.21
-0.16
-0.35
-0.32
-0.11
0.19
0.47
0.67
0.75
0.75
0.66
0.51
0.31
0.10
-0.06
-0.15
-0.14
-0.11
-0.09
-0.13
-0.18
-0.19
-0.11
0.03
0.17
0.24
0.22
0.15
0.12
0.15
0.21
0.23
0.14
-0.05
-0.25
-0.34
-0.28
-0.09
0.09
0.15
0.05
-0.17
-0.36
-0.42
-0.30
-0.05
0.20
0.33
0.30
0.14
-0.06
-0.18
-0.18
-0.06
0.10
0.23
0.29
0.23
0.04
-0.25
-0.64
-1.06
-1.44
-1.68
-1.70
-1.47
-1.07
-0.62
-0.27
-0.11
-0.16
-0.35
-0.55
-0.64
-0.58
-0.34
0.01
0.38
0.70
0.88
0.88
0.70
0.41
0.07
-0.21
-0.38
-0.41
-0.33
-0.18
0.01
0.18
0.33
0.41
0.43
0.39
0.33
0.28
0.26
0.26
0.24
0.15
-0.02
-0.25
-0.49
-0.68
-0.78
-0.80
-0.76
-0.68
-0.59
-0.45
-0.25
0.01
0.32
0.61
0.83
0.94
0.96
0.91
0.86
0.84
0.85
0.87
0.84
0.74
0.57
0.37
0.21
0.13
0.14
0.18
0.15
-0.01
-0.29
-0.63
-0.87
-0.91
-0.72
-0.38
-0.05
0.13
0.08
-0.17
-0.51
-0.80
-0.95
-0.90
-0.68
-0.36
-0.02
0.26
0.44
0.55
0.61
0.67
0.76
0.87
0.95
0.96
0.84
0.60
0.29
-0.00
-0.16
-0.13
0.06
0.30
0.47
0.47
0.32
0.12
-0.00
0.03
0.15
0.24
0.16
-0.15
-0.60
-1.07
-1.41
-1.55
-1.50
-1.29
-0.96
-0.53
-0.03
0.48
0.90
1.16
1.25
1.23
1.17
1.10
0.99
0.77
0.40
-0.06
-0.47
-0.68
-0.64
-0.43
-0.23
-0.21
-0.43
-0.79
-1.09
-1.14
-0.89
-0.41
0.10
0.43
0.46
0.19
-0.24
-0.64
-0.86
-0.83
-0.58
-0.24
0.07
0.24
0.25
0.14
-0.03
-0.19
-0.31
-0.39
-0.45
-0.45
-0.39
-0.27
-0.09
0.11
0.29
0.42
0.52
0.56
0.55
0.46
0.30
0.12
-0.03
-0.08
-0.04
0.06
0.13
0.13
0.06
-0.01
-0.03
0.03
0.12
0.15
0.07
-0.13
-0.39
-0.60
-0.66
-0.53
-0.23
0.14
0.51
0.77
0.91
0.90
0.76
0.53
0.27
0.04
-0.08
-0.09
-0.01
0.08
0.13
0.12
0.10
0.11
0.18
0.28
0.34
0.29
0.14
-0.05
-0.22
-0.30
-0.30
-0.25
-0.18
-0.11
-0.03
0.07
0.18
0.28
0.32
0.29
0.21
0.11
0.01
-0.09
-0.22
-0.42
-0.70
-0.99
-1.20
-1.21
-1.01
-0.65
-0.23
0.13
0.39
0.55
0.64
0.71
0.77
0.80
0.78
0.67
0.49
0.25
0.00
-0.20
-0.32
-0.34
-0.29
-0.20
-0.13
-0.11
-0.14
-0.17
-0.20
-0.21
-0.22
-0.23
-0.20
-0.08
0.15
0.47
0.80
1.02
1.07
0.96
0.74
0.50
0.31
0.18
0.09
-0.00
-0.13
-0.30
-0.47
-0.60
-0.62
-0.49
-0.24
0.07
0.34
0.46
0.39
0.17
-0.12
-0.36
-0.52
-0.57
-0.55
-0.47
-0.37
-0.24
-0.12
-0.03
0.02
0.08
0.20
0.40
0.67
0.92
1.04
1.01
0.87
0.71
0.65
0.69
0.76
0.78
0.71
0.60
0.52
0.53
0.59
0.60
0.48
0.20
-0.16
-0.49
-0.69
-0.80
-0.87
-1.00
-1.21
-1.42
-1.52
-1.43
-1.16
-0.78
-0.44
-0.25
-0.25
-0.38
-0.55
-0.63
-0.58
-0.40
-0.20
-0.08
-0.10
-0.23
-0.37
-0.39
-0.22
0.09
0.43
0.63
0.58
0.28
-0.16
-0.58
-0.85
-0.94
-0.91
-0.83
-0.78
-0.71
-0.56
-0.26
0.15
0.57
0.86
0.95
0.86
0.70
0.61
0.64
0.77
0.92
0.97
0.89
0.67
0.39
0.10
-0.11
-0.21
-0.17
-0.03
0.14
0.29
0.34
0.27
0.10
-0.11
-0.31
-0.44
-0.47
-0.41
-0.30
-0.18
-0.11
-0.11
-0.16
-0.23
-0.27
-0.22
-0.06
0.18
0.47
0.74
0.95
1.03
0.98
0.77
0.43
-0.01
-0.48
-0.91
-1.22
-1.35
-1.26
-0.97
-0.53
-0.05
0.34
0.52
0.46
0.20
-0.10
-0.27
-0.19
0.16
0.66
1.12
1.36
1.27
0.89
0.36
-0.15
-0.51
-0.67
-0.66
-0.57
-0.47
-0.39
-0.33
-0.29
-0.25
-0.24
-0.25
-0.26
-0.25
-0.19
-0.08
0.03
0.09
0.08
0.04
0.02
0.06
0.16
0.26
0.30
0.24
0.12
-0.01
-0.08
-0.09
-0.09
-0.11
-0.20
-0.28
-0.29
-0.18
0.04
0.30
0.48
0.54
0.48
0.38
0.30
0.29
0.30
0.24
0.05
-0.24
-0.53
-0.70
-0.62
-0.31
0.15
0.56
0.77
0.67
0.34
-0.09
-0.43
-0.59
-0.59
-0.51
-0.46
-0.46
-0.47
-0.43
-0.30
-0.10
0.12
0.28
0.37
0.40
0.41
0.40
0.38
0.32
0.22
0.11
0.02
-0.06
-0.11
-0.17
-0.25
-0.33
-0.39
-0.40
-0.31
-0.12
0.15
0.44
0.66
0.70
0.48
0.05
-0.49
-0.94
-1.15
-1.02
-0.60
-0.04
0.47
0.77
0.81
0.60
0.27
-0.03
-0.17
-0.10
0.11
0.34
0.43
0.30
-0.02
-0.37
-0.55
-0.44
-0.04
0.52
1.02
1.26
1.21
0.91
0.55
0.26
0.10
0.04
0.02
0.00
-0.00
0.06
0.23
0.46
0.66
0.69
0.47
0.02
-0.53
-1.02
-1.32
-1.39
-1.29
-1.11
-0.94
-0.84
-0.81
-0.79
-0.77
-0.71
-0.64
-0.59
-0.57
-0.59
-0.61
-0.57
-0.41
-0.15
0.17
0.44
0.57
0.50
0.29
0.04
-0.15
-0.23
-0.21
-0.16
-0.09
0.00
0.19
0.51
0.91
1.29
1.51
1.52
1.34
1.06
0.79
0.56
0.38
0.18
-0.05
-0.29
-0.50
-0.65
-0.71
-0.69
-0.59
-0.43
-0.24
-0.06
0.08
0.14
0.14
0.13
0.17
0.25
0.36
0.46
0.53
0.59
0.65
0.69
0.68
0.57
0.38
0.18
0.04
0.05
0.17
0.34
0.48
0.55
0.55
0.54
0.53
0.50
0.38
0.16
-0.13
-0.39
-0.54
-0.56
-0.46
-0.35
-0.28
-0.31
-0.41
-0.55
-0.68
-0.77
-0.81
-0.81
-0.79
-0.77
-0.76
-0.76
-0.75
-0.74
-0.71
-0.65
-0.55
-0.41
-0.23
-0.01
0.23
0.45
0.58
0.62
0.56
0.48
0.43
0.44
0.48
0.48
0.37
0.16
-0.10
-0.31
-0.37
-0.27
-0.03
0.22
0.39
0.43
0.31
0.11
-0.11
-0.28
-0.33
-0.25
-0.06
0.20
0.44
0.59
0.61
0.49
0.28
0.04
-0.18
-0.33
-0.40
-0.36
-0.24
-0.06
0.13
0.28
0.35
0.33
0.25
0.16
0.09
0.02
-0.05
-0.13
-0.20
-0.20
-0.11
0.07
0.25
0.36
0.33
0.18
-0.03
-0.19
-0.24
-0.21
-0.12
-0.04
-0.02
-0.08
-0.16
-0.23
-0.24
-0.17
-0.05
0.04
0.03
-0.11
-0.37
-0.66
-0.88
-0.96
-0.86
-0.63
-0.36
-0.13
-0.01
-0.00
-0.05
-0.06
0.02
0.23
0.54
0.85
1.06
1.11
0.96
0.68
0.37
0.10
-0.05
-0.08
-0.01
0.11
0.20
0.25
0.23
0.14
-0.00
-0.18
-0.35
-0.51
-0.65
-0.77
-0.85
-0.88
-0.85
-0.73
-0.56
-0.40
-0.32
-0.34
-0.46
-0.59
-0.63
-0.50
-0.17
0.28
0.71
0.99
1.04
0.87
0.58
0.26
0.00
-0.20
-0.38
-0.59
-0.82
-0.98
-1.01
-0.87
-0.57
-0.20
0.18
0.50
0.73
0.84
0.81
0.62
0.30
-0.07
-0.39
-0.57
-0.56
-0.42
-0.23
-0.04
0.12
0.26
0.38
0.47
0.48
0.41
0.28
0.15
0.09
0.14
0.27
0.43
0.56
0.62
0.64
0.64
0.64
0.65
0.65
0.64
0.60
0.53
0.41
0.25
0.06
-0.09
-0.13
-0.01
0.23
0.48
0.59
0.47
0.14
-0.27
-0.62
-0.84
-0.92
-0.93
-0.89
-0.76
-0.50
-0.07
0.43
0.86
1.04
0.92
0.58
0.19
-0.06
-0.10
0.02
0.13
0.11
-0.08
-0.36
-0.59
-0.65
-0.55
-0.41
-0.35
-0.44
-0.63
-0.78
-0.76
-0.55
-0.23
0.02
0.11
0.01
-0.18
-0.32
-0.31
-0.16
0.10
0.38
0.62
0.80
0.97
1.12
1.29
1.45
1.53
1.47
1.22
0.79
0.26
-0.21
-0.47
-0.44
-0.15
0.25
0.57
0.66
0.49
0.13
-0.26
-0.55
-0.69
-0.71
-0.69
-0.69
-0.73
-0.76
-0.74
-0.64
-0.49
-0.36
-0.31
-0.40
-0.60
-0.85
-1.04
-1.10
-0.99
-0.75
-0.47
-0.20
0.05
0.29
0.53
0.75
0.88
0.86
0.66
0.32
-0.08
-0.45
-0.73
-0.90
-0.96
-0.93
-0.79
-0.54
-0.22
0.09
0.32
0.42
0.38
0.25
0.07
-0.11
-0.25
-0.29
-0.21
0.00
0.28
0.50
0.56
0.42
0.15
-0.09
-0.18
-0.07
0.16
0.34
0.37
0.24
0.05
-0.08
-0.06
0.10
0.30
0.44
0.46
0.36
0.23
0.13
0.14
0.26
0.42
0.56
0.55
0.37
0.05
-0.29
-0.50
-0.48
-0.25
0.09
0.40
0.60
0.66
0.61
0.53
0.45
0.40
0.36
0.37
0.43
0.57
0.72
0.81
0.75
0.49
0.10
-0.30
-0.53
-0.48
-0.17
0.27
0.62
0.68
0.35
-0.32
-1.11
-1.78
-2.14
-2.10
-1.74
-1.21
-0.66
-0.20
0.10
0.25
0.27
0.20
0.08
-0.05
-0.17
-0.27
-0.36
-0.42
-0.46
-0.47
-0.46
-0.42
-0.36
-0.30
-0.20
-0.08
0.09
0.26
0.39
0.45
0.42
0.32
0.20
0.09
0.00
-0.10
-0.24
-0.42
-0.57
-0.60
-0.42
-0.03
0.46
0.87
1.03
0.90
0.58
0.26
0.15
0.33
0.68
0.98
1.02
0.74
0.23
-0.30
-0.65
-0.74
-0.62
-0.42
-0.26
-0.18
-0.16
-0.15
-0.11
-0.02
0.09
0.19
0.25
0.27
0.28
0.28
0.29
0.31
0.32
0.30
0.25
0.20
0.17
0.16
0.17
0.17
0.15
0.12
0.09
0.10
0.11
0.07
-0.04
-0.20
-0.36
-0.42
-0.33
-0.10
0.18
0.42
0.53
0.51
0.43
0.34
0.28
0.23
0.14
-0.04
-0.27
-0.49
-0.58
-0.49
-0.23
0.11
0.42
0.61
0.65
0.54
0.31
-0.04
-0.47
-0.90
-1.22
-1.29
-1.07
-0.61
-0.05
0.41
0.63
0.58
0.34
0.05
-0.15
-0.19
-0.10
0.03
0.12
0.10
-0.03
-0.20
-0.34
-0.43
-0.45
-0.45
-0.45
-0.41
-0.29
-0.08
0.17
0.34
0.33
0.10
-0.24
-0.52
-0.59
-0.40
-0.05
0.28
0.40
0.23
-0.19
-0.73
-1.23
-1.56
-1.65
-1.48
-1.11
-0.63
-0.14
0.24
0.45
0.51
0.46
0.39
0.37
0.42
0.51
0.59
0.65
0.68
0.68
0.66
0.62
0.51
0.32
0.04
-0.31
-0.63
-0.81
-0.77
-0.49
-0.04
0.43
0.77
0.91
0.86
0.73
0.61
0.56
0.58
0.59
0.57
0.50
0.43
0.38
0.35
0.30
0.19
0.01
-0.20
-0.39
-0.49
-0.51
-0.45
-0.35
-0.22
-0.06
0.11
0.28
0.40
0.44
0.40
0.28
0.12
-0.02
-0.13
-0.18
-0.19
-0.18
-0.21
-0.30
-0.48
-0.73
-0.97
-1.10
-1.05
-0.79
-0.37
0.12
0.58
0.93
1.15
1.21
1.11
0.90
0.63
0.37
0.19
0.12
0.10
0.07
-0.04
-0.21
-0.37
-0.42
-0.35
-0.22
-0.15
-0.21
-0.36
-0.48
-0.44
-0.22
0.13
0.45
0.60
0.56
0.37
0.16
-0.01
-0.11
-0.18
-0.27
-0.39
-0.50
-0.55
-0.45
-0.20
0.14
0.46
0.61
0.50
0.13
-0.42
-0.98
-1.38
-1.51
-1.36
-0.97
-0.45
0.12
0.65
1.06
1.30
1.33
1.21
0.97
0.71
0.47
0.29
0.14
0.02
-0.08
-0.16
-0.21
-0.23
-0.23
-0.18
-0.08
0.08
0.27
0.41
0.40
0.17
-0.23
-0.68
-0.99
-1.03
-0.79
-0.37
0.04
0.30
0.35
0.24
0.08
-0.03
-0.04
0.01
0.05
0.02
-0.08
-0.22
-0.31
-0.31
-0.21
-0.08
0.03
0.06
0.05
0.06
0.14
0.28
0.44
0.52
0.46
0.28
0.04
-0.15
-0.18
-0.05
0.17
0.38
0.44
0.31
0.02
-0.33
-0.60
-0.68
-0.55
-0.31
-0.10
-0.05
-0.18
-0.44
-0.67
-0.74
-0.61
-0.35
-0.11
0.01
-0.05
-0.20
-0.33
-0.34
-0.21
0.02
0.30
0.57
0.78
0.90
0.89
0.70
0.38
0.04
-0.21
-0.23
-0.01
0.36
0.74
0.96
0.96
0.77
0.46
0.11
-0.20
-0.47
-0.69
-0.86
-0.99
-1.04
-1.02
-0.94
-0.84
-0.72
-0.55
-0.32
-0.01
0.34
0.63
0.79
0.77
0.62
0.45
0.32
0.30
0.34
0.35
0.26
0.04
-0.24
-0.49
-0.61
-0.54
-0.31
0.04
0.43
0.80
1.11
1.32
1.35
1.18
0.80
0.29
-0.21
-0.54
-0.62
-0.42
-0.06
0.30
0.54
0.62
0.57
0.48
0.41
0.39
0.39
0.34
0.18
-0.10
-0.50
-0.91
-1.22
-1.33
-1.18
-0.85
-0.44
-0.09
0.12
0.20
0.19
0.16
0.13
0.07
-0.07
-0.27
-0.51
-0.67
-0.70
-0.57
-0.30
0.03
0.37
0.67
0.90
1.04
1.09
1.04
0.90
0.69
0.43
0.15
-0.14
-0.39
-0.55
-0.58
-0.52
-0.43
-0.39
-0.44
-0.53
-0.57
-0.48
-0.24
0.05
0.27
0.33
0.26
0.13
0.00
-0.10
-0.23
-0.43
-0.69
-0.93
-1.01
-0.85
-0.49
-0.02
0.42
0.72
0.86
0.89
0.90
0.94
1.01
1.09
1.10
1.00
0.80
0.52
0.20
-0.12
-0.44
-0.72
-0.97
-1.12
-1.12
-0.97
-0.70
-0.42
-0.20
-0.09
-0.06
-0.05
-0.03
0.02
0.08
0.13
0.17
0.24
0.33
0.41
0.41
0.28
0.03
-0.29
-0.57
-0.76
-0.83
-0.79
-0.66
-0.44
-0.18
0.07
0.20
0.16
-0.07
-0.37
-0.60
-0.61
-0.35
0.07
0.47
0.67
0.60
0.35
0.08
-0.05
0.01
0.24
0.50
0.71
0.80
0.79
0.71
0.62
0.52
0.39
0.24
0.05
-0.14
-0.29
-0.38
-0.41
-0.38
-0.33
-0.27
-0.25
-0.27
-0.34
-0.42
-0.44
-0.34
-0.12
0.16
0.37
0.42
0.30
0.06
-0.18
-0.30
-0.30
-0.23
-0.18
-0.17
-0.16
-0.06
0.14
0.41
0.64
0.72
0.61
0.35
0.03
-0.26
-0.47
-0.59
-0.60
-0.51
-0.33
-0.11
0.07
0.16
0.14
0.04
-0.07
-0.15
-0.17
-0.17
-0.17
-0.17
-0.16
-0.12
-0.03
0.08
0.16
0.20
0.20
0.21
0.23
0.27
0.30
0.27
0.21
0.16
0.20
0.34
0.56
0.77
0.89
0.86
0.68
0.43
0.15
-0.09
-0.28
-0.40
-0.46
-0.42
-0.27
-0.03
0.23
0.44
0.54
0.49
0.30
0.01
-0.29
-0.52
-0.61
-0.50
-0.23
0.11
0.41
0.53
0.41
0.09
-0.29
-0.61
-0.78
-0.81
-0.79
-0.82
-0.93
-1.06
-1.10
-0.99
-0.74
-0.45
-0.24
-0.17
-0.18
-0.18
-0.06
0.18
0.45
0.63
0.62
0.43
0.12
-0.21
-0.48
-0.65
-0.71
-0.66
-0.49
-0.22
0.09
0.38
0.56
0.62
0.56
0.41
0.23
0.10
0.04
0.06
0.16
0.25
0.31
0.32
0.32
0.36
0.48
0.70
0.92
1.07
1.07
0.90
0.59
0.20
-0.20
-0.54
-0.73
-0.69
-0.40
0.08
0.60
0.95
1.00
0.75
0.31
-0.18
-0.56
-0.80
-0.91
-0.89
-0.78
-0.55
-0.24
0.10
0.36
0.48
0.44
0.28
0.10
-0.04
-0.14
-0.18
-0.20
-0.19
-0.16
-0.14
-0.16
-0.28
-0.47
-0.69
-0.82
-0.75
-0.47
-0.02
0.48
0.87
1.09
1.09
0.94
0.71
0.48
0.27
0.06
-0.18
-0.43
-0.65
-0.74
-0.62
-0.26
0.26
0.79
1.18
1.27
1.04
0.53
-0.12
-0.74
-1.18
-1.34
-1.20
-0.84
-0.39
-0.00
0.25
0.34
0.32
0.25
0.15
0.02
-0.15
-0.35
-0.52
-0.58
-0.51
-0.35
-0.18
-0.09
-0.12
-0.20
-0.24
-0.16
0.04
0.28
0.44
0.45
0.32
0.11
-0.05
-0.09
-0.01
0.17
0.36
0.50
0.54
0.49
0.33
0.10
-0.13
-0.31
-0.38
-0.34
-0.23
-0.12
-0.06
-0.07
-0.11
-0.12
-0.08
0.02
0.16
0.28
0.35
0.35
0.31
0.26
0.22
0.19
0.19
0.22
0.31
0.46
0.67
0.88
1.01
0.99
0.81
0.52
0.20
-0.09
-0.36
-0.60
-0.83
-0.99
-1.02
-0.89
-0.64
-0.39
-0.25
-0.24
-0.33
-0.41
-0.43
-0.37
-0.30
-0.28
-0.34
-0.43
-0.47
-0.39
-0.19
0.07
0.28
0.36
0.31
0.19
0.08
0.08
0.17
0.30
0.38
0.34
0.23
0.11
0.05
0.07
0.14
0.20
0.24
0.28
0.34
0.43
0.51
0.53
0.46
0.37
0.31
0.34
0.45
0.52
0.46
0.21
-0.14
-0.48
-0.65
-0.60
-0.37
-0.10
0.10
0.13
-0.01
-0.26
-0.55
-0.82
-1.04
-1.18
-1.21
-1.10
-0.83
-0.44
0.00
0.40
0.68
0.78
0.70
0.48
0.19
-0.09
-0.27
-0.29
-0.16
0.10
0.38
0.62
0.74
0.73
0.62
0.43
0.23
0.08
0.03
0.11
0.30
0.53
0.68
0.68
0.48
0.16
-0.17
-0.41
-0.55
-0.61
-0.66
-0.71
-0.72
-0.64
-0.44
-0.19
-0.03
-0.08
-0.38
-0.83
-1.26
-1.47
-1.37
-1.03
-0.59
-0.25
-0.11
-0.19
-0.37
-0.53
-0.56
-0.44
-0.24
-0.05
0.06
0.14
0.27
0.53
0.92
1.30
1.49
1.34
0.88
0.29
-0.15
-0.25
0.01
0.44
0.81
0.93
0.74
0.36
-0.05
-0.35
-0.49
-0.49
-0.40
-0.30
-0.21
-0.17
-0.21
-0.33
-0.48
-0.61
-0.66
-0.62
-0.52
-0.41
-0.30
-0.18
0.01
0.28
0.56
0.77
0.80
0.67
0.45
0.30
0.34
0.59
0.95
1.24
1.36
1.26
1.03
0.78
0.62
0.55
0.52
0.46
0.34
0.16
-0.05
-0.24
-0.36
-0.43
-0.47
-0.49
-0.53
-0.59
-0.64
-0.65
-0.58
-0.43
-0.27
-0.14
-0.10
-0.13
-0.17
-0.14
-0.04
0.12
0.25
0.30
0.25
0.12
-0.06
-0.26
-0.48
-0.68
-0.84
-0.88
-0.77
-0.54
-0.26
-0.03
0.08
0.08
0.01
-0.05
-0.10
-0.15
-0.24
-0.37
-0.49
-0.52
-0.39
-0.10
0.23
0.49
0.56
0.41
0.11
-0.22
-0.47
-0.55
-0.50
-0.36
-0.21
-0.06
0.05
0.15
0.24
0.31
0.36
0.40
0.44
0.49
0.56
0.65
0.78
0.92
1.04
1.11
1.09
0.92
0.65
0.31
-0.03
-0.30
-0.44
-0.47
-0.40
-0.28
-0.16
-0.07
-0.03
-0.02
-0.03
-0.04
-0.05
-0.08
-0.14
-0.28
-0.48
-0.73
-0.96
-1.10
-1.06
-0.84
-0.47
-0.06
0.29
0.54
0.67
0.73
0.78
0.82
0.82
0.75
0.61
0.42
0.24
0.09
-0.05
-0.22
-0.41
-0.57
-0.61
-0.48
-0.23
0.04
0.20
0.19
0.05
-0.10
-0.17
-0.13
-0.01
0.12
0.21
0.24
0.22
0.15
0.01
-0.17
-0.36
-0.49
-0.50
-0.39
-0.25
-0.19
-0.31
-0.60
-0.95
-1.19
-1.20
-0.96
-0.54
-0.12
0.11
0.09
-0.15
-0.48
-0.73
-0.77
-0.57
-0.18
0.26
0.63
0.81
0.80
0.64
0.40
0.17
0.05
0.11
0.37
0.82
1.36
1.82
2.03
1.88
1.40
0.74
0.06
-0.48
-0.84
-1.03
-1.12
-1.12
-1.03
-0.84
-0.58
-0.29
-0.03
0.14
0.20
0.18
0.13
0.11
0.15
0.26
0.39
0.50
0.52
0.44
0.27
0.07
-0.11
-0.20
-0.16
0.03
0.35
0.70
0.95
0.98
0.75
0.36
-0.00
-0.18
-0.12
0.09
0.27
0.29
0.12
-0.12
-0.28
-0.28
-0.13
0.06
0.14
0.02
-0.30
-0.76
-1.20
-1.51
-1.60
-1.47
-1.18
-0.83
-0.50
-0.25
-0.06
0.08
0.17
0.19
0.14
0.04
-0.07
-0.14
-0.18
-0.22
-0.28
-0.35
-0.40
-0.36
-0.23
-0.02
0.20
0.39
0.55
0.70
0.90
1.14
1.41
1.64
1.78
1.78
1.63
1.33
0.92
0.46
0.05
-0.22
-0.33
-0.34
-0.34
-0.43
-0.62
-0.88
-1.13
-1.29
-1.37
-1.35
-1.22
-0.95
-0.52
-0.01
0.45
0.66
0.51
0.02
-0.58
-1.02
-1.07
-0.67
0.04
0.78
1.32
1.54
1.47
1.24
0.97
0.71
0.45
0.15
-0.18
-0.48
-0.63
-0.60
-0.40
-0.14
0.06
0.15
0.10
-0.01
-0.12
-0.22
-0.32
-0.42
-0.51
-0.56
-0.53
-0.43
-0.31
-0.24
-0.23
-0.25
-0.26
-0.22
-0.15
-0.11
-0.17
-0.30
-0.43
-0.44
-0.26
0.06
0.43
0.71
0.83
0.78
0.59
0.35
0.11
-0.11
-0.28
-0.37
-0.36
-0.27
-0.17
-0.15
-0.23
-0.36
-0.46
-0.43
-0.27
-0.05
0.13
0.18
0.13
0.07
0.07
0.18
0.33
0.48
0.58
0.69
0.87
1.16
1.51
1.80
1.89
1.71
1.28
0.74
0.21
-0.17
-0.34
-0.34
-0.22
-0.08
0.02
0.05
0.02
0.00
0.01
0.05
0.09
0.08
-0.01
-0.17
-0.37
-0.54
-0.62
-0.59
-0.45
-0.25
-0.09
-0.06
-0.21
-0.53
-0.91
-1.23
-1.39
-1.38
-1.25
-1.08
-0.93
-0.80
-0.64
-0.44
-0.20
0.01
0.15
0.17
0.09
-0.04
-0.19
-0.31
-0.41
-0.49
-0.53
-0.51
-0.39
-0.16
0.14
0.44
0.70
0.88
1.00
1.07
1.07
0.98
0.77
0.46
0.16
-0.03
0.00
0.25
0.61
0.93
1.07
0.99
0.73
0.42
0.15
-0.04
-0.15
-0.22
-0.27
-0.33
-0.37
-0.41
-0.46
-0.56
-0.71
-0.89
-1.03
-1.05
-0.91
-0.62
-0.27
0.05
0.23
0.24
0.14
0.03
0.01
0.13
0.37
0.65
0.83
0.81
0.57
0.14
-0.34
-0.75
-0.98
-1.03
-0.93
-0.75
-0.55
-0.32
-0.07
0.17
0.35
0.41
0.35
0.22
0.11
0.09
0.19
0.32
0.40
0.35
0.16
-0.08
-0.26
-0.31
-0.18
0.07
0.32
0.48
0.49
0.41
0.33
0.37
0.52
0.71
0.82
0.76
0.59
0.42
0.39
0.52
0.74
0.86
0.77
0.46
0.04
-0.30
-0.46
-0.45
-0.38
-0.34
-0.38
-0.45
-0.45
-0.34
-0.15
0.02
0.08
-0.01
-0.22
-0.44
-0.58
-0.60
-0.51
-0.38
-0.30
-0.32
-0.43
-0.57
-0.65
-0.61
-0.43
-0.17
0.11
0.29
0.34
0.26
0.07
-0.14
-0.36
-0.54
-0.66
-0.70
-0.65
-0.49
-0.24
0.05
0.32
0.49
0.51
0.38
0.13
-0.13
-0.28
-0.27
-0.07
0.23
0.53
0.70
0.68
0.49
0.21
-0.04
-0.18
-0.14
0.06
0.33
0.61
0.81
0.94
0.99
0.97
0.86
0.62
0.25
-0.19
-0.59
-0.80
-0.76
-0.53
-0.21
0.08
0.31
0.51
0.74
1.02
1.30
1.51
1.59
1.50
1.25
0.90
0.50
0.13
-0.17
-0.33
-0.36
-0.30
-0.21
-0.18
-0.29
-0.55
-0.92
-1.32
-1.66
-1.83
-1.76
-1.44
-0.93
-0.33
0.24
0.69
0.96
1.07
1.05
0.94
0.80
0.69
0.62
0.60
0.60
0.58
0.50
0.36
0.19
0.03
-0.10
-0.20
-0.29
-0.39
-0.47
-0.51
-0.48
-0.40
-0.31
-0.27
-0.31
-0.39
-0.47
-0.51
-0.52
-0.52
-0.54
-0.54
-0.48
-0.30
-0.01
0.30
0.53
0.61
0.55
0.41
0.25
0.06
-0.20
-0.54
-0.91
-1.16
-1.16
-0.86
-0.36
0.14
0.46
0.53
0.44
0.33
0.34
0.48
0.66
0.76
0.67
0.40
0.04
-0.30
-0.52
-0.62
-0.64
-0.67
-0.77
-0.90
-0.99
-0.95
-0.75
-0.43
-0.11
0.07
0.05
-0.14
-0.37
-0.48
-0.41
-0.16
0.13
0.33
0.33
0.13
-0.19
-0.49
-0.66
-0.67
-0.57
-0.45
-0.38
-0.35
-0.32
-0.24
-0.10
0.03
0.09
0.07
-0.01
-0.05
0.00
0.13
0.27
0.29
0.12
-0.20
-0.57
-0.81
-0.81
-0.52
0.00
0.59
1.07
1.29
1.21
0.86
0.39
-0.07
-0.39
-0.53
-0.49
-0.31
-0.04
0.28
0.57
0.76
0.77
0.55
0.13
-0.41
-0.91
-1.22
-1.23
-0.94
-0.44
0.09
0.46
0.55
0.32
-0.13
-0.61
-0.97
-1.10
-1.07
-1.00
-1.03
-1.24
-1.57
-1.87
-2.00
-1.90
-1.62
-1.30
-1.12
-1.17
-1.48
-1.99
-2.58
-3.13
-3.50
-3.66
-3.64
-3.58
-3.66
-4.05
-4.81
-5.86
-6.95
-7.80
-8.26
-8.37
-8.40
-8.70
-9.48
-10.72
-12.08
-13.14
-13.58
-13.49
-13.30
-13.61
-14.88
-17.06
-19.64
-21.83
-22.97
-22.60
-20.43
-16.08
-8.97
1.30
14.56
29.72
44.85
57.85
67.37
73.38
76.82
78.64
78.69
75.59
67.46
53.42
34.69
14.52
-3.08
-15.08
-20.69
-21.37
-19.71
-18.01
-17.24
-17.05
-16.50
-14.99
-12.70
-10.46
-9.15
-9.15
-10.18
-11.50
-12.24
-11.94
-10.67
-9.00
-7.63
-7.11
-7.52
-8.47
-9.32
-9.50
-8.78
-7.42
-5.93
-4.90
-4.64
-5.13
-5.99
-6.75
-7.04
-6.77
-6.13
-5.44
-4.97
-4.81
-4.87
-4.98
-4.98
-4.85
-4.67
-4.55
-4.53
-4.58
-4.62
-4.55
-4.39
-4.22
-4.13
-4.20
-4.47
-4.90
-5.42
-5.98
-6.50
-6.91
-7.19
-7.36
-7.50
-7.75
-8.22
-8.93
-9.84
-10.83
-11.81
-12.75
-13.60
-14.25
-14.53
-14.22
-13.25
-11.76
-10.10
-8.63
-7.54
-6.75
-5.97
-4.95
-3.62
-2.20
-0.98
-0.09
0.72
1.94
4.08
7.30
11.27
15.26
18.44
20.21
20.46
19.51
17.93
16.25
14.81
13.74
12.97
12.40
11.90
11.39
10.77
10.03
9.15
8.16
7.11
6.03
4.95
3.90
2.93
2.12
1.46
0.89
0.17
-0.94
-2.61
-4.83
-7.35
-9.83
-12.01
-13.79
-15.25
-16.56
-17.83
-19.08
-20.26
-21.34
-22.30
-23.12
-23.78
-24.23
-24.54
-24.93
-25.67
-26.77
-27.88
-28.23
-26.93
-23.31
-17.21
-9.00
0.56
10.58
20.30
29.15
36.81
43.22
48.54
53.00
56.84
60.08
62.45
63.66
63.51
62.20
60.36
58.80
58.22
59.14
61.84
66.13
71.03
74.55
74.07
67.23
53.23
33.63
12.03
-7.17
-20.69
-27.49
-28.92
-27.52
-25.62
-24.35
-23.73
-23.40
-23.29
-23.86
-25.54
-28.21
-31.01
-32.76
-32.61
-30.40
-26.74
-22.69
-19.18
-16.74
-15.39
-14.79
-14.47
-13.99
-13.08
-11.67
-9.88
-7.92
-6.03
-4.32
-2.84
-1.54
-0.37
0.57
1.01
0.57
-1.10
-4.11
-8.21
-12.75
-16.90
-19.92
-21.44
-21.60
-20.94
-20.11
-19.55
-19.34
-19.23
-18.85
-17.98
-16.62
-14.96
-13.23
-11.49
-9.67
-7.61
-5.22
-2.64
-0.15
1.87
3.21
3.89
4.15
4.28
4.46
4.67
4.71
4.36
3.54
2.38
1.20
0.26
-0.28
-0.50
-0.60
-0.78
-1.14
-1.63
-2.09
-2.44
-2.66
-2.80
-2.90
-2.92
-2.75
-2.28
-1.55
-0.70
0.11
0.82
1.53
2.47
3.80
5.45
7.12
8.45
9.18
9.31
9.09
8.85
8.79
8.88
8.92
8.67
8.00
6.99
5.87
4.89
4.22
3.86
3.70
3.57
3.33
2.94
2.45
1.90
1.38
0.90
0.49
0.14
-0.09
-0.19
-0.12
0.10
0.39
0.64
0.77
0.71
0.49
0.19
-0.09
-0.26
-0.28
-0.18
-0.01
0.16
0.26
0.27
0.19
0.04
-0.13
-0.27
-0.32
-0.29
-0.18
-0.07
-0.05
-0.19
-0.51
-0.92
-1.27
-1.40
-1.20
-0.70
-0.07
0.47
0.73
0.64
0.31
-0.11
-0.46
-0.69
-0.82
-0.92
-0.99
-0.97
-0.78
-0.39
0.12
0.61
0.92
0.98
0.81
0.53
0.25
0.01
-0.18
-0.33
-0.44
-0.48
-0.40
-0.23
-0.01
0.15
0.21
0.17
0.11
0.10
0.20
0.39
0.60
0.76
0.80
0.74
0.58
0.35
0.04
-0.34
-0.77
-1.18
-1.53
-1.74
-1.83
-1.81
-1.71
-1.55
-1.33
-1.06
-0.76
-0.49
-0.33
-0.30
-0.37
-0.48
-0.56
-0.61
-0.66
-0.75
-0.88
-1.03
-1.13
-1.12
-1.02
-0.88
-0.77
-0.73
-0.73
-0.72
-0.64
-0.50
-0.31
-0.12
0.03
0.15
0.25
0.33
0.36
0.33
0.25
0.17
0.13
0.18
0.28
0.36
0.33
0.15
-0.12
-0.40
-0.56
-0.53
-0.33
-0.06
0.19
0.37
0.48
0.58
0.69
0.79
0.79
0.58
0.17
-0.36
-0.85
-1.14
-1.12
-0.81
-0.33
0.12
0.36
0.30
-0.04
-0.57
-1.09
-1.43
-1.51
-1.29
-0.84
-0.25
0.39
1.01
1.56
1.98
2.19
2.14
1.82
1.30
0.71
0.18
-0.19
-0.38
-0.40
-0.32
-0.19
-0.05
0.08
0.19
0.26
0.31
0.33
0.34
0.34
0.32
0.24
0.08
-0.15
-0.41
-0.61
-0.68
-0.57
-0.30
0.03
0.33
0.49
0.44
0.19
-0.18
-0.56
-0.83
-0.91
-0.79
-0.52
-0.21
0.07
0.28
0.39
0.43
0.38
0.24
0.01
-0.27
-0.48
-0.52
-0.31
0.13
0.69
1.19
1.49
1.51
1.27
0.88
0.47
0.14
-0.04
-0.09
-0.07
-0.05
-0.09
-0.20
-0.38
-0.55
-0.64
-0.59
-0.38
-0.09
0.18
0.31
0.25
0.02
-0.27
-0.53
-0.69
-0.74
-0.73
-0.69
-0.64
-0.57
-0.43
-0.21
0.11
0.49
0.84
1.08
1.11
0.90
0.51
0.09
-0.19
-0.22
-0.01
0.32
0.59
0.68
0.56
0.30
0.02
-0.18
-0.24
-0.16
-0.00
0.21
0.43
0.64
0.81
0.91
0.93
0.86
0.74
0.61
0.52
0.51
0.55
0.60
0.62
0.56
0.43
0.23
0.01
-0.21
-0.40
-0.53
-0.57
-0.53
-0.44
-0.36
-0.37
-0.49
-0.73
-1.01
-1.25
-1.35
-1.28
-1.07
-0.76
-0.47
-0.28
-0.22
-0.25
-0.30
-0.31
-0.25
-0.15
-0.09
-0.10
-0.18
-0.25
-0.20
-0.02
0.23
0.41
0.41
0.18
-0.17
-0.49
-0.60
-0.44
-0.05
0.41
0.80
1.00
0.98
0.81
0.56
0.28
0.01
-0.19
-0.29
-0.27
-0.09
0.18
0.43
0.53
0.39
0.01
-0.50
-0.97
-1.25
-1.28
-1.10
-0.84
-0.60
-0.48
-0.47
-0.53
-0.58
-0.54
-0.36
-0.06
0.32
0.71
1.03
1.21
1.25
1.14
0.91
0.58
0.16
-0.28
-0.66
-0.88
-0.86
-0.64
-0.29
0.04
0.26
0.35
0.36
0.36
0.41
0.48
0.56
0.60
0.59
0.54
0.45
0.31
0.15
0.00
-0.05
0.05
0.28
0.55
0.70
0.65
0.39
-0.01
-0.39
-0.65
-0.74
-0.72
-0.66
-0.63
-0.65
-0.70
-0.72
-0.68
-0.58
-0.49
-0.47
-0.55
-0.70
-0.83
-0.84
-0.72
-0.52
-0.35
-0.28
-0.32
-0.39
-0.41
-0.37
-0.29
-0.24
-0.23
-0.23
-0.16
0.02
0.28
0.50
0.55
0.40
0.10
-0.16
-0.22
0.04
0.57
1.22
1.76
2.01
1.90
1.51
1.02
0.64
0.46
0.47
0.55
0.58
0.49
0.32
0.18
0.20
0.41
0.73
0.99
1.04
0.78
0.27
-0.32
-0.78
-0.95
-0.86
-0.65
-0.52
-0.58
-0.84
-1.15
-1.34
-1.30
-1.03
-0.61
-0.17
0.16
0.34
0.33
0.16
-0.08
-0.34
-0.53
-0.63
-0.67
-0.69
-0.72
-0.72
-0.58
-0.28
0.16
0.60
0.90
0.96
0.85
0.69
0.65
0.76
0.97
1.11
1.06
0.76
0.28
-0.23
-0.63
-0.81
-0.75
-0.50
-0.14
0.21
0.46
0.54
0.45
0.23
-0.03
-0.26
-0.40
-0.43
-0.37
-0.28
-0.20
-0.12
-0.05
0.03
0.09
0.10
0.01
-0.19
-0.45
-0.65
-0.68
-0.48
-0.10
0.34
0.69
0.87
0.88
0.80
0.71
0.66
0.63
0.55
0.37
0.08
-0.25
-0.51
-0.65
-0.64
-0.50
-0.27
0.02
0.37
0.73
1.04
1.22
1.22
1.06
0.80
0.56
0.42
0.39
0.45
0.54
0.59
0.56
0.44
0.27
0.07
-0.09
-0.20
-0.26
-0.28
-0.29
-0.29
-0.28
-0.27
-0.22
-0.11
0.06
0.28
0.49
0.63
0.67
0.60
0.46
0.33
0.26
0.27
0.27
0.20
-0.00
-0.31
-0.63
-0.85
-0.90
-0.81
-0.66
-0.55
-0.54
-0.64
-0.81
-0.96
-1.00
-0.93
-0.77
-0.60
-0.53
-0.59
-0.76
-0.94
-1.02
-0.94
-0.72
-0.46
-0.30
-0.31
-0.49
-0.73
-0.93
-0.96
-0.80
-0.54
-0.29
-0.15
-0.13
-0.20
-0.25
-0.21
-0.08
0.07
0.16
0.12
-0.02
-0.18
-0.26
-0.20
-0.00
0.29
0.59
0.86
1.08
1.25
1.41
1.56
1.67
1.69
1.54
1.19
0.66
0.05
-0.49
-0.84
-0.94
-0.83
-0.64
-0.48
-0.43
-0.47
-0.53
-0.54
-0.47
-0.34
-0.19
-0.05
0.06
0.15
0.23
0.30
0.35
0.38
0.39
0.37
0.31
0.19
-0.00
-0.24
-0.48
-0.66
-0.77
-0.82
-0.79
-0.69
-0.47
-0.15
0.22
0.52
0.62
0.47
0.12
-0.25
-0.48
-0.49
-0.32
-0.12
-0.03
-0.07
-0.20
-0.33
-0.37
-0.37
-0.35
-0.35
-0.34
-0.22
0.03
0.35
0.62
0.67
0.46
0.06
-0.33
-0.53
-0.46
-0.19
0.14
0.35
0.40
0.34
0.27
0.31
0.45
0.65
0.79
0.80
0.66
0.44
0.23
0.09
0.04
0.03
0.01
-0.05
-0.12
-0.15
-0.11
-0.01
0.10
0.14
0.08
-0.07
-0.25
-0.40
-0.49
-0.53
-0.56
-0.60
-0.65
-0.67
-0.61
-0.45
-0.21
0.06
0.30
0.47
0.57
0.63
0.66
0.65
0.56
0.36
0.06
-0.26
-0.50
-0.59
-0.51
-0.31
-0.09
0.11
0.26
0.38
0.49
0.57
0.58
0.52
0.41
0.33
0.33
0.41
0.52
0.53
0.36
0.03
-0.39
-0.75
-0.94
-0.94
-0.83
-0.70
-0.66
-0.68
-0.68
-0.58
-0.33
0.02
0.36
0.56
0.57
0.44
0.24
0.08
-0.01
-0.06
-0.09
-0.10
-0.06
0.06
0.26
0.49
0.64
0.63
0.46
0.17
-0.13
-0.35
-0.46
-0.46
-0.39
-0.29
-0.22
-0.20
-0.26
-0.39
-0.51
-0.55
-0.48
-0.32
-0.17
-0.10
-0.12
-0.17
-0.11
0.12
0.50
0.86
1.05
0.99
0.72
0.36
0.03
-0.17
-0.24
-0.15
0.04
0.31
0.58
0.74
0.73
0.54
0.26
0.01
-0.12
-0.14
-0.10
-0.07
-0.10
-0.14
-0.13
-0.08
-0.01
-0.01
-0.10
-0.24
-0.32
-0.27
-0.11
0.05
0.07
-0.09
-0.38
-0.63
-0.66
-0.42
-0.01
0.41
0.67
0.68
0.52
0.29
0.12
0.03
-0.03
-0.13
-0.27
-0.40
-0.42
-0.26
0.05
0.43
0.74
0.85
0.76
0.50
0.19
-0.07
-0.25
-0.35
-0.41
-0.44
-0.45
-0.42
-0.32
-0.18
-0.03
0.09
0.13
0.09
-0.02
-0.15
-0.25
-0.31
-0.32
-0.31
-0.27
-0.21
-0.10
0.07
0.29
0.53
0.74
0.91
1.02
1.08
1.08
1.01
0.86
0.66
0.48
0.40
0.46
0.62
0.78
0.82
0.67
0.37
0.01
-0.28
-0.45
-0.49
-0.44
-0.32
-0.18
-0.03
0.07
0.06
-0.11
-0.44
-0.85
-1.26
-1.54
-1.63
-1.50
-1.17
-0.74
-0.29
0.06
0.24
0.21
0.02
-0.26
-0.55
-0.77
-0.89
-0.90
-0.81
-0.64
-0.40
-0.15
0.06
0.19
0.19
0.12
0.06
0.10
0.29
0.57
0.83
0.94
0.84
0.56
0.24
0.00
-0.07
-0.01
0.08
0.11
0.04
-0.05
-0.07
0.05
0.27
0.48
0.54
0.36
-0.01
-0.47
-0.84
-1.01
-0.95
-0.70
-0.36
-0.02
0.27
0.49
0.63
0.68
0.63
0.49
0.27
-0.00
-0.25
-0.42
-0.48
-0.43
-0.33
-0.22
-0.18
-0.23
-0.36
-0.53
-0.65
-0.69
-0.64
-0.52
-0.39
-0.28
-0.20
-0.15
-0.11
-0.09
-0.13
-0.23
-0.35
-0.41
-0.29
0.04
0.49
0.90
1.12
1.09
0.87
0.61
0.45
0.42
0.51
0.64
0.78
0.89
0.98
0.98
0.84
0.51
0.01
-0.53
-0.96
-1.15
-1.07
-0.83
-0.57
-0.42
-0.43
-0.55
-0.67
-0.68
-0.49
-0.15
0.24
0.58
0.78
0.81
0.72
0.56
0.41
0.31
0.27
0.26
0.26
0.27
0.30
0.35
0.44
0.51
0.54
0.48
0.33
0.14
-0.03
-0.15
-0.20
-0.24
-0.32
-0.42
-0.49
-0.46
-0.34
-0.21
-0.18
-0.31
-0.57
-0.84
-0.97
-0.89
-0.61
-0.25
0.05
0.21
0.19
0.03
-0.22
-0.52
-0.81
-1.06
-1.20
-1.19
-0.98
-0.58
-0.03
0.55
1.04
1.30
1.28
0.99
0.54
0.08
-0.26
-0.41
-0.37
-0.21
-0.02
0.15
0.24
0.27
0.25
0.20
0.16
0.16
0.21
0.28
0.32
0.27
0.13
-0.05
-0.21
-0.28
-0.22
-0.08
0.08
0.22
0.31
0.33
0.30
0.21
0.08
-0.07
-0.21
-0.30
-0.32
-0.29
-0.24
-0.19
-0.12
-0.01
0.18
0.44
0.70
0.87
0.88
0.68
0.34
0.00
-0.21
-0.21
-0.01
0.30
0.59
0.77
0.77
0.63
0.42
0.21
0.10
0.09
0.17
0.23
0.19
0.01
-0.30
-0.62
-0.84
-0.88
-0.76
-0.58
-0.43
-0.32
-0.21
-0.01
0.29
0.59
0.77
0.71
0.44
0.05
-0.27
-0.42
-0.37
-0.18
0.06
0.26
0.41
0.47
0.45
0.34
0.17
-0.04
-0.26
-0.45
-0.60
-0.70
-0.76
-0.76
-0.68
-0.53
-0.36
-0.22
-0.14
-0.13
-0.14
-0.13
-0.10
-0.07
-0.06
-0.06
-0.02
0.09
0.24
0.35
0.34
0.15
-0.16
-0.50
-0.74
-0.79
-0.65
-0.35
0.02
0.36
0.57
0.56
0.32
-0.10
-0.57
-0.89
-0.92
-0.63
-0.13
0.41
0.78
0.87
0.68
0.31
-0.12
-0.49
-0.73
-0.81
-0.74
-0.53
-0.23
0.08
0.32
0.44
0.41
0.29
0.16
0.12
0.22
0.47
0.77
1.01
1.08
0.92
0.58
0.13
-0.30
-0.64
-0.83
-0.88
-0.83
-0.69
-0.49
-0.23
0.10
0.45
0.77
0.97
1.00
0.86
0.63
0.43
0.35
0.41
0.53
0.61
0.56
0.32
-0.04
-0.47
-0.86
-1.16
-1.31
-1.28
-1.06
-0.67
-0.21
0.18
0.41
0.45
0.38
0.30
0.32
0.44
0.60
0.68
0.64
0.49
0.32
0.22
0.24
0.36
0.52
0.66
0.73
0.72
0.66
0.54
0.37
0.12
-0.17
-0.43
-0.59
-0.58
-0.39
-0.08
0.20
0.34
0.30
0.13
-0.04
-0.11
-0.06
0.05
0.10
0.03
-0.16
-0.39
-0.55
-0.58
-0.50
-0.38
-0.31
-0.38
-0.56
-0.78
-0.91
-0.85
-0.57
-0.15
0.27
0.52
0.52
0.33
0.11
-0.00
0.04
0.16
0.23
0.16
-0.03
-0.24
-0.36
-0.34
-0.21
-0.09
-0.08
-0.20
-0.38
-0.52
-0.53
-0.40
-0.18
0.05
0.25
0.40
0.50
0.52
0.44
0.26
0.01
-0.22
-0.33
-0.27
-0.08
0.15
0.32
0.35
0.26
0.10
-0.10
-0.33
-0.59
-0.85
-1.03
-1.06
-0.91
-0.63
-0.32
-0.08
0.04
0.07
0.08
0.13
0.21
0.29
0.34
0.36
0.39
0.49
0.66
0.84
0.96
0.94
0.78
0.56
0.35
0.22
0.19
0.26
0.39
0.54
0.67
0.74
0.69
0.52
0.25
-0.05
-0.32
-0.51
-0.62
-0.67
-0.67
-0.61
-0.50
-0.37
-0.27
-0.26
-0.37
-0.54
-0.72
-0.84
-0.85
-0.76
-0.58
-0.33
-0.04
0.22
0.42
0.49
0.44
0.30
0.15
0.04
0.03
0.11
0.26
0.48
0.69
0.85
0.88
0.74
0.44
0.02
-0.39
-0.70
-0.83
-0.75
-0.49
-0.12
0.27
0.60
0.81
0.86
0.75
0.52
0.23
-0.08
-0.35
-0.58
-0.77
-0.89
-0.95
-0.93
-0.82
-0.65
-0.44
-0.20
0.03
0.21
0.28
0.23
0.06
-0.15
-0.30
-0.31
-0.15
0.15
0.50
0.78
0.92
0.86
0.62
0.25
-0.15
-0.47
-0.60
-0.50
-0.23
0.10
0.34
0.43
0.37
0.27
0.23
0.31
0.50
0.70
0.83
0.83
0.71
0.53
0.31
0.09
-0.14
-0.41
-0.70
-0.97
-1.13
-1.11
-0.87
-0.49
-0.08
0.22
0.32
0.22
-0.01
-0.25
-0.40
-0.41
-0.31
-0.16
-0.02
0.03
-0.04
-0.20
-0.41
-0.56
-0.57
-0.40
-0.09
0.26
0.53
0.59
0.42
0.09
-0.29
-0.60
-0.76
-0.74
-0.59
-0.37
-0.13
0.09
0.26
0.39
0.48
0.56
0.60
0.59
0.53
0.45
0.36
0.29
0.23
0.17
0.05
-0.14
-0.36
-0.50
-0.45
-0.17
0.27
0.71
0.95
0.93
0.68
0.38
0.23
0.33
0.63
0.96
1.15
1.05
0.70
0.22
-0.24
-0.56
-0.69
-0.69
-0.65
-0.64
-0.71
-0.81
-0.88
-0.85
-0.72
-0.54
-0.36
-0.25
-0.23
-0.24
-0.24
-0.17
-0.04
0.08
0.16
0.19
0.22
0.31
0.50
0.75
1.00
1.17
1.22
1.17
1.06
0.92
0.77
0.59
0.40
0.22
0.13
0.15
0.29
0.47
0.56
0.48
0.21
-0.18
-0.55
-0.77
-0.79
-0.64
-0.44
-0.27
-0.20
-0.26
-0.43
-0.68
-0.98
-1.26
-1.45
-1.49
-1.36
-1.10
-0.82
-0.60
-0.47
-0.39
-0.28
-0.07
0.22
0.52
0.72
0.74
0.59
0.29
-0.07
-0.40
-0.65
-0.76
-0.74
-0.58
-0.33
-0.04
0.22
0.41
0.52
0.57
0.60
0.63
0.67
0.68
0.65
0.56
0.43
0.28
0.14
0.05
0.02
0.04
0.09
0.14
0.15
0.10
-0.01
-0.12
-0.19
-0.16
-0.04
0.14
0.31
0.40
0.40
0.31
0.16
-0.01
-0.15
-0.25
-0.30
-0.28
-0.21
-0.12
-0.03
0.04
0.11
0.21
0.33
0.45
0.50
0.43
0.23
-0.05
-0.31
-0.45
-0.42
-0.26
-0.05
0.14
0.25
0.27
0.20
0.07
-0.12
-0.34
-0.51
-0.56
-0.43
-0.12
0.33
0.80
1.16
1.29
1.14
0.69
0.06
-0.60
-1.09
-1.21
-0.91
-0.28
0.46
1.05
1.31
1.19
0.82
0.38
0.01
-0.21
-0.31
-0.32
-0.25
-0.10
0.09
0.24
0.26
0.06
-0.29
-0.67
-0.87
-0.78
-0.42
0.07
0.47
0.66
0.60
0.40
0.19
0.09
0.13
0.27
0.41
0.45
0.31
-0.01
-0.44
-0.85
-1.11
-1.14
-0.95
-0.62
-0.25
0.02
0.14
0.10
-0.04
-0.19
-0.28
-0.29
-0.23
-0.12
0.00
0.13
0.24
0.32
0.31
0.17
-0.07
-0.37
-0.63
-0.74
-0.69
-0.50
-0.26
-0.09
-0.04
-0.08
-0.17
-0.24
-0.24
-0.18
-0.11
-0.09
-0.15
-0.30
-0.48
-0.62
-0.67
-0.65
-0.63
-0.66
-0.75
-0.80
-0.72
-0.44
-0.01
0.44
0.77
0.90
0.84
0.69
0.53
0.37
0.21
0.01
-0.20
-0.38
-0.45
-0.39
-0.24
-0.07
0.07
0.17
0.27
0.39
0.52
0.62
0.60
0.42
0.10
-0.27
-0.56
-0.68
-0.58
-0.33
-0.02
0.24
0.43
0.53
0.60
0.70
0.85
1.04
1.19
1.22
1.08
0.80
0.45
0.20
0.12
0.22
0.40
0.51
0.45
0.19
-0.20
-0.60
-0.91
-1.05
-1.04
-0.88
-0.60
-0.23
0.21
0.64
0.96
1.06
0.89
0.49
-0.04
-0.56
-0.96
-1.18
-1.25
-1.20
-1.08
-0.90
-0.63
-0.26
0.18
0.60
0.88
0.94
0.77
0.44
0.09
-0.15
-0.22
-0.16
-0.05
-0.02
-0.10
-0.27
-0.41
-0.39
-0.18
0.16
0.45
0.51
0.30
-0.08
-0.43
-0.56
-0.43
-0.12
0.19
0.36
0.37
0.30
0.25
0.27
0.29
0.22
-0.02
-0.38
-0.74
-0.92
-0.83
-0.48
0.02
0.51
0.86
0.99
0.91
0.67
0.33
-0.04
-0.36
-0.58
-0.64
-0.53
-0.27
0.06
0.35
0.51
0.52
0.43
0.29
0.18
0.10
-0.01
-0.19
-0.44
-0.68
-0.78
-0.66
-0.32
0.13
0.53
0.77
0.80
0.67
0.46
0.20
-0.05
-0.25
-0.36
-0.29
-0.03
0.37
0.79
1.10
1.19
1.07
0.81
0.49
0.19
-0.12
-0.41
-0.67
-0.83
-0.83
-0.68
-0.46
-0.30
-0.25
-0.29
-0.30
-0.16
0.11
0.42
0.58
0.47
0.10
-0.36
-0.72
-0.82
-0.62
-0.25
0.14
0.41
0.49
0.42
0.27
0.12
0.01
-0.04
-0.04
0.03
0.13
0.27
0.40
0.49
0.51
0.42
0.22
-0.04
-0.30
-0.49
-0.55
-0.44
-0.23
0.00
0.14
0.12
-0.05
-0.33
-0.64
-0.88
-1.02
-1.04
-0.93
-0.71
-0.40
-0.09
0.11
0.13
-0.06
-0.33
-0.51
-0.45
-0.11
0.41
0.93
1.25
1.30
1.12
0.85
0.61
0.47
0.43
0.40
0.31
0.15
-0.05
-0.19
-0.21
-0.07
0.18
0.45
0.63
0.64
0.46
0.17
-0.11
-0.26
-0.24
-0.08
0.09
0.18
0.12
-0.07
-0.34
-0.60
-0.82
-1.01
-1.18
-1.31
-1.34
-1.24
-1.01
-0.75
-0.58
-0.61
-0.81
-1.02
-1.02
-0.68
-0.02
0.72
1.23
1.31
0.94
0.38
-0.07
-0.17
0.13
0.64
1.06
1.18
0.91
0.38
-0.16
-0.51
-0.54
-0.32
0.01
0.29
0.43
0.46
0.44
0.41
0.35
0.23
0.05
-0.14
-0.25
-0.21
-0.02
0.22
0.41
0.48
0.46
0.39
0.31
0.20
0.03
-0.20
-0.43
-0.54
-0.46
-0.25
-0.02
0.10
0.04
-0.15
-0.34
-0.45
-0.45
-0.38
-0.30
-0.24
-0.22
-0.22
-0.24
-0.27
-0.33
-0.38
-0.38
-0.31
-0.17
-0.00
0.13
0.16
0.10
-0.04
-0.19
-0.32
-0.37
-0.34
-0.25
-0.10
0.09
0.32
0.55
0.74
0.84
0.83
0.74
0.65
0.63
0.70
0.78
0.79
0.65
0.38
0.10
-0.08
-0.08
0.09
0.33
0.55
0.67
0.67
0.57
0.40
0.18
-0.09
-0.40
-0.70
-0.96
-1.11
-1.09
-0.90
-0.60
-0.28
-0.06
-0.04
-0.20
-0.47
-0.72
-0.83
-0.74
-0.51
-0.22
0.01
0.15
0.19
0.22
0.28
0.43
0.62
0.80
0.88
0.83
0.68
0.48
0.29
0.13
-0.04
-0.25
-0.51
-0.77
-0.96
-1.00
-0.89
-0.69
-0.52
-0.43
-0.45
-0.51
-0.51
-0.40
-0.16
0.15
0.46
0.70
0.85
0.93
0.93
0.88
0.79
0.67
0.53
0.39
0.23
0.06
-0.12
-0.29
-0.42
-0.53
-0.62
-0.68
-0.73
-0.74
-0.67
-0.54
-0.38
-0.25
-0.21
-0.23
-0.26
-0.22
-0.10
0.07
0.23
0.30
0.29
0.22
0.12
0.01
-0.11
-0.22
-0.31
-0.33
-0.29
-0.22
-0.18
-0.21
-0.26
-0.25
-0.09
0.23
0.60
0.86
0.86
0.57
0.11
-0.27
-0.38
-0.12
0.43
1.04
1.49
1.62
1.43
1.06
0.65
0.31
0.06
-0.12
-0.24
-0.31
-0.33
-0.29
-0.22
-0.16
-0.11
-0.04
0.08
0.25
0.43
0.55
0.53
0.39
0.22
0.13
0.22
0.46
0.77
1.03
1.13
1.08
0.92
0.70
0.45
0.14
-0.23
-0.66
-1.06
-1.35
-1.45
-1.34
-1.11
-0.88
-0.75
-0.81
-1.01
-1.25
-1.40
-1.34
-1.03
-0.55
0.00
0.48
0.80
0.92
0.86
0.64
0.34
0.06
-0.11
-0.11
0.04
0.26
0.39
0.38
0.21
0.01
-0.11
-0.08
0.07
0.25
0.37
0.36
0.23
0.03
-0.18
-0.37
-0.50
-0.57
-0.57
-0.56
-0.56
-0.63
-0.72
-0.78
-0.75
-0.62
-0.44
-0.30
-0.22
-0.19
-0.09
0.15
0.51
0.87
1.07
0.96
0.57
0.02
-0.50
-0.81
-0.88
-0.77
-0.61
-0.50
-0.46
-0.49
-0.53
-0.53
-0.49
-0.40
-0.24
-0.00
0.29
0.58
0.78
0.82
0.70
0.47
0.24
0.07
-0.03
-0.14
-0.36
-0.72
-1.12
-1.46
-1.63
-1.63
-1.51
-1.39
-1.32
-1.33
-1.38
-1.44
-1.50
-1.58
-1.70
-1.87
-2.07
-2.29
-2.51
-2.69
-2.79
-2.73
-2.43
-1.83
-0.93
0.18
1.36
2.43
3.23
3.67
3.74
3.56
3.27
2.99
2.77
2.56
2.29
1.93
1.56
1.33
1.37
1.70
2.20
2.63
2.73
2.42
1.74
0.92
0.21
-0.19
-0.26
-0.10
0.12
0.27
0.31
0.26
0.20
0.18
0.20
0.24
0.27
0.33
0.44
0.62
0.89
1.17
1.40
1.50
1.46
1.32
1.13
0.95
0.81
0.67
0.52
0.33
0.13
-0.06
-0.22
-0.38
-0.58
-0.87
-1.22
-1.54
-1.73
-1.72
-1.53
-1.29
-1.15
-1.23
-1.52
-1.88
-2.10
-2.00
-1.54
-0.83
-0.10
0.43
0.66
0.63
0.50
0.48
0.64
0.96
1.28
1.44
1.35
1.04
0.61
0.20
-0.09
-0.23
-0.24
-0.17
-0.05
0.10
0.24
0.34
0.38
0.33
0.21
0.10
0.04
0.06
0.12
0.15
0.08
-0.10
-0.30
-0.44
-0.45
-0.33
-0.15
0.01
0.11
0.13
0.11
0.09
0.08
0.08
0.08
